I,II,III,aVR,aVL,aVF,V1,V2,V3,V4,V5,V6
-0.08100,0.04600,0.12700,0.01700,-0.10500,0.08700,0.11900,0.24700,0.10200,0.00600,-0.04900,-0.12900
-0.08500,0.06600,0.15100,0.00900,-0.11800,0.10800,0.12700,0.27500,0.12800,0.02100,-0.03800,-0.11900
-0.07600,0.09600,0.17200,-0.01000,-0.12400,0.13400,0.15800,0.32100,0.17300,0.04700,-0.02000,-0.10300
-0.06300,0.11400,0.17600,-0.02600,-0.12000,0.14500,0.15700,0.36000,0.21000,0.07700,-0.00900,-0.09000
-0.03500,0.14200,0.17700,-0.05400,-0.10600,0.16000,0.15100,0.36900,0.22500,0.09100,0.00600,-0.07400
-0.00200,0.16500,0.16800,-0.08200,-0.08500,0.16600,0.14400,0.35600,0.23400,0.09500,0.03600,-0.04000
0.02100,0.18000,0.15900,-0.10100,-0.06900,0.17000,0.12900,0.34300,0.22500,0.09700,0.06700,-0.02400
0.02800,0.18100,0.15400,-0.10500,-0.06300,0.16700,0.09500,0.30400,0.20200,0.08000,0.06500,-0.02500
0.01800,0.15400,0.13600,-0.08600,-0.05900,0.14500,0.05300,0.25200,0.17200,0.06300,0.07100,-0.01800
0.02000,0.12300,0.10300,-0.07200,-0.04200,0.11300,0.03000,0.19300,0.11900,0.03300,0.05700,-0.03000
0.01800,0.10400,0.08700,-0.06100,-0.03500,0.09500,0.00400,0.13900,0.06300,0.00000,0.03200,-0.04200
0.00200,0.08000,0.07800,-0.04100,-0.03800,0.07900,-0.01000,0.10100,0.02800,-0.02300,0.02800,-0.04000
-0.00900,0.05400,0.06300,-0.02300,-0.03600,0.05800,-0.02300,0.06900,0.00800,-0.04300,0.01200,-0.05700
-0.03400,0.03100,0.06500,0.00100,-0.05000,0.04800,-0.03500,0.05000,-0.01300,-0.05900,0.00400,-0.07600
-0.05300,0.01300,0.06600,0.02000,-0.06000,0.03900,-0.03600,0.04000,-0.03600,-0.08100,-0.01400,-0.07900
-0.02500,0.03000,0.05500,-0.00300,-0.04000,0.04200,-0.04500,0.02200,-0.04800,-0.09300,-0.02200,-0.06500
-0.02100,0.02200,0.04300,-0.00100,-0.03200,0.03300,-0.04500,0.00500,-0.05400,-0.09900,-0.02300,-0.05900
-0.04400,0.01000,0.05400,0.01700,-0.04900,0.03200,-0.04400,0.00500,-0.04700,-0.09400,-0.03600,-0.06500
-0.04900,0.01700,0.06700,0.01600,-0.05800,0.04200,-0.04600,0.00400,-0.05300,-0.10400,-0.02100,-0.03900
-0.06000,-0.00300,0.05800,0.03100,-0.05900,0.02700,-0.04500,0.00600,-0.07200,-0.12700,-0.02900,-0.03200
-0.05400,-0.00100,0.05300,0.02800,-0.05400,0.02600,-0.04400,0.00300,-0.06600,-0.12100,-0.05100,-0.03800
-0.05200,-0.00500,0.04700,0.02800,-0.05000,0.02100,-0.04800,-0.01100,-0.06300,-0.11800,-0.05000,-0.02200
-0.07100,-0.02700,0.04400,0.04800,-0.05700,0.00800,-0.04300,-0.00600,-0.06000,-0.11500,-0.04900,-0.01800
-0.06200,-0.01600,0.04600,0.03900,-0.05400,0.01500,-0.03500,0.01400,-0.05500,-0.10900,-0.04500,-0.01200
-0.05500,-0.00900,0.04600,0.03200,-0.05000,0.01800,-0.03400,0.02500,-0.05300,-0.11300,-0.04500,-0.00900
-0.07600,-0.01900,0.05700,0.04700,-0.06600,0.01900,-0.03000,0.02500,-0.04600,-0.10900,-0.04300,-0.00400
-0.07000,-0.00700,0.06200,0.03800,-0.06600,0.02700,-0.02700,0.02900,-0.04100,-0.10300,-0.03700,0.00000
-0.05000,0.00700,0.05600,0.02100,-0.05300,0.03200,-0.02500,0.02700,-0.03500,-0.09700,-0.03300,-0.00300
-0.05500,-0.00600,0.04800,0.03000,-0.05100,0.02100,-0.02500,0.03300,-0.03000,-0.08800,-0.02900,0.00900
-0.05400,-0.00700,0.04700,0.03000,-0.05100,0.02000,-0.02500,0.04200,-0.02600,-0.08000,-0.02400,0.01500
-0.07100,0.00100,0.07300,0.03500,-0.07200,0.03700,-0.02500,0.03600,-0.02300,-0.07100,-0.02000,0.02500
-0.07400,0.00600,0.08000,0.03300,-0.07700,0.04300,-0.02500,0.03500,-0.02100,-0.06500,-0.02500,0.03600
-0.05500,0.01600,0.07100,0.01900,-0.06300,0.04300,-0.02500,0.03100,-0.01700,-0.06500,-0.02500,0.03500
-0.05400,0.01500,0.06900,0.01900,-0.06100,0.04200,-0.02400,0.02900,-0.01600,-0.06600,-0.02800,0.03500
-0.04200,0.02200,0.06400,0.01000,-0.05400,0.04300,-0.02100,0.03400,-0.01200,-0.07100,-0.03500,0.03500
-0.04900,0.00800,0.05700,0.02000,-0.05300,0.03200,-0.01800,0.03200,-0.01000,-0.06900,-0.03500,0.03500
-0.04400,0.01500,0.06000,0.01400,-0.05200,0.03800,-0.02800,0.02700,-0.00900,-0.06400,-0.03400,0.03500
-0.04100,0.03000,0.07100,0.00500,-0.05700,0.05100,-0.03600,0.02400,-0.01100,-0.07000,-0.03600,0.03600
-0.05600,0.01400,0.07000,0.02100,-0.06300,0.04200,-0.03400,0.02100,-0.02300,-0.08000,-0.03300,0.03700
-0.06200,0.00800,0.07000,0.02700,-0.06600,0.03900,-0.03500,0.01600,-0.02700,-0.09300,-0.03900,0.03400
-0.05900,0.01200,0.07100,0.02400,-0.06500,0.04100,-0.03500,0.01500,-0.03400,-0.09500,-0.03600,0.03100
-0.03700,0.02800,0.06500,0.00400,-0.05200,0.04600,-0.03500,0.01400,-0.03500,-0.08900,-0.02400,0.02900
-0.03500,0.02200,0.05700,0.00600,-0.04600,0.03900,-0.03400,0.01800,-0.03000,-0.08700,-0.03000,0.02500
-0.03200,0.01900,0.05100,0.00600,-0.04200,0.03500,-0.03800,0.01900,-0.03000,-0.08200,-0.03100,0.02600
-0.02800,0.01600,0.04400,0.00500,-0.03600,0.03000,-0.04500,0.01200,-0.02400,-0.08100,-0.02900,0.02900
-0.02900,0.01100,0.04000,0.00900,-0.03400,0.02500,-0.04500,0.00700,-0.02800,-0.09400,-0.03100,0.02400
-0.03100,0.00900,0.04000,0.01100,-0.03600,0.02500,-0.04500,0.00100,-0.04000,-0.10800,-0.02900,0.02500
-0.04400,-0.00400,0.04000,0.02400,-0.04200,0.01700,-0.04500,-0.00400,-0.03900,-0.11100,-0.03200,0.02500
-0.04300,-0.00300,0.04000,0.02300,-0.04100,0.01800,-0.04500,-0.00200,-0.03600,-0.11000,-0.04000,0.02500
-0.03800,0.00200,0.04000,0.01800,-0.03900,0.02100,-0.04300,0.00000,-0.03300,-0.11000,-0.03700,0.02600
-0.03100,0.00600,0.03700,0.01200,-0.03400,0.02100,-0.03800,0.00000,-0.03000,-0.11000,-0.03100,0.01900
-0.01800,0.01100,0.02800,0.00300,-0.02300,0.02000,-0.03200,0.00500,-0.02800,-0.10900,-0.02800,0.03000
-0.02700,0.00000,0.02700,0.01300,-0.02700,0.01300,-0.02900,0.00500,-0.02500,-0.10400,-0.02200,0.03700
-0.02500,-0.01100,0.01400,0.01800,-0.02000,0.00200,-0.02300,0.00600,-0.02200,-0.09900,-0.01800,0.03400
-0.02200,-0.01500,0.00700,0.01900,-0.01400,-0.00400,-0.02100,0.01400,-0.02000,-0.09500,-0.03000,0.03600
-0.04400,-0.01500,0.02900,0.02900,-0.03600,0.00700,-0.03600,0.01500,-0.01600,-0.09000,-0.04500,0.03400
-0.04100,-0.01000,0.03100,0.02600,-0.03600,0.01000,-0.03400,0.02200,-0.01500,-0.08600,-0.03900,0.03600
-0.03400,-0.00900,0.02400,0.02100,-0.02900,0.00700,-0.02500,0.02600,-0.01900,-0.08100,-0.03200,0.02800
-0.02900,-0.00400,0.02500,0.01600,-0.02600,0.01000,-0.02000,0.02400,-0.01600,-0.07500,-0.02700,0.02500
-0.02300,-0.00400,0.01900,0.01400,-0.02100,0.00700,-0.01100,0.02600,-0.00400,-0.06900,-0.01800,0.01600
-0.01200,0.00900,0.02200,0.00100,-0.01700,0.01500,-0.00800,0.02400,0.00500,-0.06400,-0.01800,0.02200
-0.01500,0.03300,0.04800,-0.00900,-0.03200,0.04100,0.00300,0.03500,0.01300,-0.05900,-0.02100,0.04900
-0.00400,0.04900,0.05300,-0.02300,-0.02800,0.05100,0.01200,0.05000,0.02900,-0.05500,-0.01900,0.04900
0.04400,0.07400,0.03100,-0.05900,0.00600,0.05200,0.00800,0.04700,0.03500,-0.05900,-0.01200,0.05100
0.04100,0.07500,0.03400,-0.05800,0.00300,0.05400,-0.01500,0.04100,0.02500,-0.06100,-0.01400,0.04800
0.03300,0.06900,0.03600,-0.05200,-0.00100,0.05200,-0.04200,0.03500,0.02000,-0.05900,0.00300,0.05600
0.03700,0.06800,0.03100,-0.05300,0.00300,0.04900,-0.06100,0.02900,0.01300,-0.05800,0.02900,0.07600
0.03500,0.06400,0.03000,-0.05000,0.00200,0.04700,-0.07100,0.02300,0.00500,-0.05500,0.02500,0.06900
0.03700,0.06200,0.02500,-0.05000,0.00600,0.04400,-0.06500,0.01900,0.01300,-0.05300,0.01600,0.06300
0.02400,0.04900,0.02500,-0.03700,-0.00100,0.03600,-0.06000,0.01200,0.01500,-0.06600,0.00700,0.05500
0.01900,0.03800,0.02000,-0.02900,-0.00100,0.02900,-0.05800,0.00800,0.00800,-0.06600,0.00300,0.05100
0.01100,0.02300,0.01200,-0.01700,-0.00100,0.01700,-0.05000,0.00100,-0.00300,-0.07900,-0.01300,0.03800
-0.01000,-0.00300,0.00700,0.00600,-0.00800,0.00200,-0.05100,-0.00200,-0.00600,-0.08200,-0.01600,0.03300
-0.01900,-0.02200,-0.00200,0.02100,-0.00800,-0.01200,-0.04900,0.00200,-0.01800,-0.08900,-0.03800,0.02600
-0.01600,-0.02100,-0.00500,0.01900,-0.00500,-0.01300,-0.05500,-0.01800,-0.02800,-0.09500,-0.03100,0.02600
-0.01600,-0.03200,-0.01700,0.02400,0.00100,-0.02400,-0.05200,-0.01400,-0.03000,-0.10300,-0.03400,0.02100
0.00500,-0.01900,-0.02400,0.00700,0.01500,-0.02100,-0.04100,-0.01100,-0.03100,-0.10000,-0.05900,0.01400
-0.00500,-0.02600,-0.02100,0.01600,0.00800,-0.02300,-0.04300,-0.00600,-0.01900,-0.09500,-0.05200,0.01800
-0.03400,-0.04400,-0.01000,0.03900,-0.01200,-0.02700,-0.02200,0.00200,-0.03500,-0.11200,-0.07000,-0.01900
0.00300,0.01600,0.01300,-0.00900,-0.00500,0.01400,-0.01600,0.04500,0.05300,-0.01300,-0.01900,0.00700
0.06000,0.04900,-0.01000,-0.05400,0.03500,0.01900,0.07200,0.30900,0.35500,0.25100,0.14200,0.11200
0.47900,0.28900,-0.19100,-0.38400,0.33500,0.04900,-0.08100,0.57300,0.99600,1.01100,0.92700,0.63300
0.91700,0.46700,-0.45000,-0.69200,0.68300,0.00900,-0.64000,0.03800,0.66700,0.83900,1.28400,1.03400
0.58800,0.15500,-0.43300,-0.37200,0.51000,-0.13900,-1.03800,-1.11000,-0.89700,-0.68700,0.39300,0.63100
0.15400,-0.06600,-0.22000,-0.04400,0.18700,-0.14300,-0.94400,-1.26600,-1.24200,-1.09900,-0.10700,0.29300
0.04600,-0.02900,-0.07600,-0.00800,0.06100,-0.05200,-0.51000,-0.61000,-0.61800,-0.62000,-0.11800,0.17600
-0.01900,-0.01300,0.00700,0.01600,-0.01300,-0.00300,-0.19900,-0.26100,-0.28900,-0.33500,-0.12400,0.05100
-0.03200,-0.00400,0.02800,0.01800,-0.03000,0.01100,-0.06800,-0.07400,-0.09100,-0.16400,-0.07300,0.01200
-0.03800,-0.00800,0.03000,0.02300,-0.03400,0.01100,-0.01100,-0.00300,-0.05100,-0.13500,-0.09000,-0.01400
-0.05500,-0.02900,0.02600,0.04100,-0.04000,-0.00100,-0.00600,0.01900,-0.01200,-0.09400,-0.08000,-0.00900
-0.05900,-0.03700,0.02200,0.04800,-0.04000,-0.00700,0.00900,0.04500,0.01300,-0.09000,-0.08800,-0.02800
-0.04900,-0.02900,0.01900,0.03900,-0.03400,-0.00500,0.00800,0.04600,0.01800,-0.08700,-0.08300,-0.03200
-0.04300,-0.02800,0.01400,0.03500,-0.02800,-0.00700,0.01700,0.05400,0.02400,-0.08100,-0.07900,-0.02500
-0.03500,-0.02300,0.01200,0.02900,-0.02300,-0.00500,0.02200,0.04700,0.02000,-0.08100,-0.08200,-0.02600
-0.03400,-0.02000,0.01400,0.02700,-0.02400,-0.00300,0.02400,0.05400,0.03000,-0.07200,-0.07600,-0.01900
-0.04300,-0.01600,0.02700,0.02900,-0.03400,0.00500,0.02600,0.05900,0.03400,-0.08100,-0.07600,-0.02100
-0.04700,-0.01500,0.03200,0.03100,-0.03900,0.00800,0.02300,0.06200,0.03600,-0.07900,-0.07400,-0.02400
-0.05200,-0.02500,0.02700,0.03800,-0.03900,0.00100,0.02900,0.06000,0.03300,-0.08000,-0.07600,-0.02500
-0.05200,-0.02400,0.02700,0.03700,-0.03900,0.00200,0.04000,0.06800,0.04600,-0.08000,-0.07400,-0.02500
-0.04200,-0.02200,0.02000,0.03100,-0.03100,-0.00100,0.03900,0.07000,0.05100,-0.08000,-0.07600,-0.02500
-0.03400,-0.01600,0.01800,0.02500,-0.02600,0.00100,0.04800,0.07800,0.04900,-0.08100,-0.07900,-0.02400
-0.05300,-0.01700,0.03700,0.03400,-0.04500,0.01000,0.06200,0.09200,0.05000,-0.07600,-0.07600,-0.02900
-0.05500,-0.02000,0.03500,0.03700,-0.04500,0.00700,0.05900,0.08800,0.04900,-0.07100,-0.07300,-0.03100
-0.04900,-0.01400,0.03500,0.03100,-0.04100,0.01000,0.06100,0.09900,0.06300,-0.06400,-0.07100,-0.02900
-0.05100,-0.01000,0.04100,0.03000,-0.04600,0.01500,0.06000,0.11800,0.07000,-0.05800,-0.06700,-0.02600
-0.04900,-0.00600,0.04300,0.02700,-0.04500,0.01800,0.06200,0.13200,0.08300,-0.05300,-0.06500,-0.02500
-0.03100,0.00200,0.03400,0.01400,-0.03200,0.01800,0.07300,0.15600,0.10900,-0.03200,-0.06200,-0.02400
0.00300,0.03000,0.02600,-0.01700,-0.01200,0.02800,0.09200,0.18900,0.13200,-0.01300,-0.05400,-0.01700
-0.00500,0.03600,0.04200,-0.01600,-0.02400,0.03900,0.10900,0.22300,0.16800,0.00700,-0.04700,-0.01200
-0.01600,0.04000,0.05500,-0.01200,-0.03600,0.04700,0.12300,0.26100,0.20100,0.03400,-0.04300,-0.00700
-0.01400,0.07900,0.09300,-0.03300,-0.05400,0.08600,0.15400,0.31100,0.24200,0.06300,-0.03700,0.00600
-0.00400,0.10200,0.10600,-0.05000,-0.05500,0.10400,0.17100,0.34600,0.28200,0.09900,-0.00800,0.03300
0.02300,0.13300,0.10900,-0.07800,-0.04300,0.12100,0.16200,0.37000,0.31400,0.12800,0.03100,0.06600
0.04700,0.16800,0.12100,-0.10700,-0.03800,0.14400,0.15600,0.38300,0.32900,0.14200,0.04600,0.08800
0.07500,0.17700,0.10200,-0.12600,-0.01400,0.13900,0.14300,0.36200,0.31800,0.14600,0.06200,0.11400
0.08600,0.17700,0.09100,-0.13200,-0.00300,0.13400,0.12300,0.32700,0.30300,0.13600,0.08000,0.13300
0.07800,0.15800,0.08000,-0.11800,-0.00200,0.11900,0.08400,0.28400,0.27200,0.10900,0.07300,0.12200
0.06900,0.13700,0.06800,-0.10300,0.00000,0.10200,0.04300,0.21500,0.21500,0.08300,0.06400,0.10800
0.05900,0.11400,0.05500,-0.08700,0.00100,0.08400,0.02500,0.15800,0.16600,0.06200,0.05700,0.09400
0.04200,0.08700,0.04500,-0.06500,-0.00200,0.06600,0.00900,0.12500,0.13500,0.03700,0.04200,0.07900
0.02900,0.06800,0.03800,-0.04900,-0.00500,0.05300,0.00800,0.09000,0.09500,0.01200,0.02700,0.06800
0.02500,0.05400,0.03000,-0.04000,-0.00300,0.04200,0.00900,0.06800,0.06700,-0.00500,0.01800,0.06000
0.02300,0.04500,0.02200,-0.03400,0.00000,0.03400,0.00000,0.05200,0.05600,-0.02100,0.00700,0.05400
0.01900,0.03500,0.01600,-0.02800,0.00100,0.02600,-0.00500,0.03700,0.04200,-0.03800,-0.00200,0.04700
0.01000,0.02400,0.01400,-0.01800,-0.00300,0.01900,-0.01300,0.02900,0.03300,-0.04500,-0.01000,0.04100
0.00900,0.02000,0.01000,-0.01500,0.00000,0.01500,-0.01900,0.02200,0.02500,-0.04600,-0.01500,0.03500
0.01100,0.02000,0.00900,-0.01600,0.00100,0.01400,-0.01600,0.01500,0.01500,-0.05700,-0.02600,0.03000
0.01400,0.01800,0.00400,-0.01700,0.00500,0.01000,-0.01500,0.00700,0.01100,-0.06200,-0.04600,0.02600
0.00500,0.01500,0.00900,-0.01000,-0.00200,0.01200,-0.01400,0.00200,0.00800,-0.05900,-0.05100,0.02400
-0.00100,0.01500,0.01600,-0.00700,-0.00900,0.01500,-0.01100,0.00400,0.00500,-0.06200,-0.05000,0.02000
0.00300,0.01800,0.01500,-0.01100,-0.00600,0.01600,-0.00900,0.00900,0.00300,-0.06900,-0.05000,0.01500
-0.00100,0.01500,0.01600,-0.00700,-0.00900,0.01500,-0.01400,0.01100,-0.00100,-0.06500,-0.04600,0.01500
0.01500,0.02600,0.01100,-0.02100,0.00200,0.01800,-0.02000,0.01600,0.00300,-0.05700,-0.04300,0.01500
0.00800,0.03800,0.03000,-0.02300,-0.01200,0.03400,-0.01300,0.02000,0.01100,-0.05100,-0.04000,0.01500
-0.01000,0.03300,0.04300,-0.01100,-0.02700,0.03800,-0.00600,0.01900,0.01900,-0.04400,-0.03800,0.01500
-0.00700,0.03100,0.03800,-0.01200,-0.02300,0.03500,0.00000,0.02800,0.02700,-0.03900,-0.03400,0.01500
-0.00800,0.03000,0.03800,-0.01100,-0.02300,0.03300,0.00800,0.03700,0.03400,-0.03300,-0.03800,0.01400
-0.00400,0.03000,0.03400,-0.01300,-0.01900,0.03100,0.00800,0.03900,0.03900,-0.02800,-0.03800,0.01100
-0.00400,0.03100,0.03500,-0.01400,-0.02000,0.03200,0.00500,0.04000,0.04000,-0.02200,-0.03100,0.00500
-0.01100,0.03000,0.04100,-0.01000,-0.02600,0.03500,0.00500,0.04300,0.03900,-0.01700,-0.02600,0.01000
-0.00500,0.04000,0.04500,-0.01800,-0.02600,0.04300,0.00500,0.04500,0.04100,-0.01000,-0.02100,0.02100
0.01100,0.04800,0.03800,-0.03000,-0.01400,0.04300,0.00500,0.03800,0.04000,-0.01600,-0.01400,0.02000
0.00800,0.04300,0.03500,-0.02600,-0.01300,0.03900,0.00000,0.03500,0.03500,-0.02600,-0.01200,0.01600
0.00500,0.03500,0.03000,-0.02000,-0.01300,0.03200,-0.00800,0.03000,0.03000,-0.02500,-0.02300,0.01400
0.00500,0.02900,0.02500,-0.01700,-0.01000,0.02700,-0.01000,0.02500,0.02400,-0.02500,-0.02600,0.01100
-0.00700,0.02300,0.03000,-0.00900,-0.01900,0.02700,-0.01000,0.02200,0.01900,-0.02900,-0.02400,0.00900
-0.00400,0.01300,0.01700,-0.00500,-0.01100,0.01500,-0.00900,0.01600,0.01400,-0.03100,-0.02600,0.01400
0.00400,0.03500,0.03100,-0.02000,-0.01300,0.03300,-0.01300,0.01100,0.01000,-0.03900,-0.03200,0.01500
-0.00100,0.05200,0.05300,-0.02500,-0.02800,0.05200,-0.02200,0.00800,0.00800,-0.04600,-0.03600,0.01200
0.00300,0.03900,0.03700,-0.02100,-0.01700,0.03800,-0.01800,0.00200,0.00500,-0.04000,-0.03100,0.00900
0.00100,0.03400,0.03400,-0.01800,-0.01700,0.03400,-0.01500,0.00100,0.00200,-0.03500,-0.02900,0.00600
0.00100,0.03300,0.03200,-0.01700,-0.01600,0.03200,-0.01300,0.00500,-0.00100,-0.03200,-0.02400,0.00300
0.01200,0.03500,0.02300,-0.02300,-0.00600,0.02900,-0.00900,0.00500,0.00400,-0.02500,-0.02000,0.00200
0.01100,0.02800,0.01800,-0.02000,-0.00400,0.02300,-0.01200,0.00500,0.01400,-0.02800,-0.02300,0.00700
0.01600,0.02400,0.00800,-0.02000,0.00300,0.01600,-0.01100,0.00100,0.01400,-0.03700,-0.02600,0.00400
0.01800,0.02100,0.00300,-0.02000,0.00800,0.01200,-0.01000,0.00000,0.00900,-0.04000,-0.03300,-0.00100
0.01000,0.01300,0.00300,-0.01200,0.00300,0.00800,-0.00900,0.00000,0.00700,-0.04000,-0.03600,-0.00300
0.01100,0.02300,0.01200,-0.01700,-0.00100,0.01700,-0.00500,-0.00500,0.00200,-0.04000,-0.03400,-0.00900
0.01600,0.03000,0.01400,-0.02400,0.00100,0.02200,-0.00400,-0.00500,0.00000,-0.04000,-0.03200,-0.01000
0.01600,0.02300,0.00700,-0.02000,0.00400,0.01500,-0.01100,-0.00400,-0.00600,-0.04000,-0.02900,-0.00500
0.01000,0.02000,0.01000,-0.01500,0.00000,0.01400,-0.01600,-0.00700,-0.01000,-0.04100,-0.03100,-0.00500
0.00400,0.01500,0.01100,-0.01000,-0.00400,0.01200,-0.01500,-0.01100,-0.01000,-0.04600,-0.03500,-0.00400
0.00000,0.01000,0.01000,-0.00500,-0.00500,0.01000,-0.01300,-0.01000,-0.01000,-0.04400,-0.03300,-0.01100
0.00400,0.01200,0.00800,-0.00800,-0.00200,0.01000,-0.01000,-0.01000,-0.01000,-0.04100,-0.02900,-0.01700
0.01200,0.01600,0.00400,-0.01500,0.00300,0.01000,-0.00900,-0.01000,-0.01000,-0.03800,-0.03000,-0.01300
0.00400,0.00900,0.00600,-0.00700,-0.00100,0.00700,-0.01300,-0.01000,-0.01000,-0.03500,-0.03000,-0.01000
0.00900,0.00800,0.00000,-0.00900,0.00400,0.00400,-0.01400,-0.01200,-0.00500,-0.03400,-0.03000,-0.00800
0.01100,0.00300,-0.00800,-0.00700,0.00900,-0.00200,-0.00900,-0.01500,0.00000,-0.02800,-0.03000,-0.00400
-0.00300,-0.00200,0.00100,0.00200,-0.00200,0.00000,-0.00400,-0.01500,0.00500,-0.02200,-0.02500,-0.00600
0.00500,0.02100,0.01600,-0.01300,-0.00600,0.01900,0.00300,-0.00900,0.00900,-0.01700,-0.02000,-0.01000
0.01000,0.02300,0.01200,-0.01700,-0.00100,0.01700,0.00700,-0.00200,0.01400,-0.01100,-0.01600,-0.00500
0.01200,0.03400,0.02200,-0.02300,-0.00500,0.02700,0.01700,0.00400,0.01700,-0.00700,-0.01100,0.00000
0.00800,0.05300,0.04500,-0.03100,-0.01800,0.04900,0.02100,0.01000,0.02200,-0.00700,-0.00700,0.00500
0.01800,0.06100,0.04300,-0.04000,-0.01300,0.05200,0.01100,0.01800,0.01800,-0.00200,-0.00300,0.01100
0.03600,0.07300,0.03800,-0.05500,-0.00100,0.05500,0.00300,0.01900,0.02400,0.00900,0.00400,0.01500
0.03700,0.06800,0.03100,-0.05200,0.00300,0.04900,-0.00600,0.01100,0.03900,0.00500,0.01000,0.01400
0.04600,0.07300,0.02700,-0.06000,0.01000,0.05000,-0.03100,0.00500,0.03500,0.00900,0.01800,0.02300
0.05700,0.07700,0.02000,-0.06700,0.01800,0.04800,-0.04200,-0.00300,0.02400,0.00700,0.02300,0.03700
0.05800,0.06800,0.01000,-0.06400,0.02400,0.03900,-0.03700,-0.00800,0.01700,-0.00100,0.01900,0.03900
0.05300,0.05500,0.00200,-0.05400,0.02500,0.02800,-0.03400,-0.01400,0.00800,-0.01100,0.00900,0.03000
0.05200,0.04400,-0.00800,-0.04800,0.02900,0.01800,-0.03000,-0.02600,0.00000,-0.01900,0.00200,0.02400
0.02600,0.01100,-0.01500,-0.01800,0.02000,-0.00200,-0.02700,-0.02400,-0.00400,-0.02400,-0.00500,0.01900
-0.00500,-0.03900,-0.03400,0.02200,0.01500,-0.03600,-0.02200,-0.02600,-0.01700,-0.03700,-0.01600,0.00700
0.00200,-0.04000,-0.04200,0.01900,0.02200,-0.04100,-0.02200,-0.02400,-0.01700,-0.03500,-0.01700,0.00000
0.00300,-0.03300,-0.03600,0.01600,0.02000,-0.03400,-0.01500,-0.02600,-0.03200,-0.05000,-0.03300,-0.01800
0.01000,-0.02400,-0.03400,0.00800,0.02200,-0.02900,-0.01800,-0.03500,-0.02600,-0.04200,-0.02600,-0.02100
-0.01700,-0.04900,-0.03200,0.03300,0.00800,-0.04000,-0.00800,-0.03500,-0.02800,-0.06700,-0.04600,-0.03800
-0.02600,-0.05400,-0.02800,0.04000,0.00100,-0.04000,-0.01300,-0.05100,-0.02400,-0.05400,-0.03400,-0.03000
-0.00700,-0.04100,-0.03400,0.02400,0.01400,-0.03700,-0.00800,-0.03800,-0.02300,-0.06400,-0.04600,-0.03500
-0.01900,-0.04400,-0.02500,0.03200,0.00300,-0.03400,0.00100,-0.03700,-0.03000,-0.05500,-0.03600,-0.04500
-0.00900,-0.00100,0.00800,0.00500,-0.00800,0.00300,0.04400,0.08000,0.10500,0.07400,0.01800,-0.00800
0.12200,0.08200,-0.03900,-0.10200,0.08000,0.02100,0.10800,0.38500,0.50600,0.45900,0.28000,0.14300
0.68700,0.39200,-0.29500,-0.53900,0.49100,0.04800,-0.21800,0.53400,1.11500,1.19100,1.09600,0.71300
0.99500,0.38900,-0.60600,-0.69100,0.80000,-0.10800,-0.81000,-0.26300,0.29800,0.44700,1.00100,0.84000
0.51800,-0.04500,-0.56200,-0.23600,0.54000,-0.30300,-1.10600,-1.34300,-1.22800,-1.00400,0.08300,0.34400
0.14800,-0.12500,-0.27300,-0.01100,0.21100,-0.19800,-0.82700,-1.11100,-1.07000,-0.90800,-0.12900,0.17100
0.03000,-0.04800,-0.07800,0.00900,0.05400,-0.06200,-0.36000,-0.49700,-0.48300,-0.45600,-0.10600,0.09000
-0.03400,-0.04200,-0.00800,0.03900,-0.01300,-0.02500,-0.13600,-0.25800,-0.25400,-0.24500,-0.09800,-0.01000
-0.03000,-0.03400,-0.00400,0.03200,-0.01300,-0.01900,-0.01900,-0.08500,-0.07100,-0.10500,-0.08100,-0.04500
-0.04100,-0.03700,0.00500,0.03900,-0.02300,-0.01600,0.01600,-0.06200,-0.05600,-0.08700,-0.08800,-0.06300
-0.04600,-0.03500,0.01100,0.04000,-0.02800,-0.01200,0.03400,-0.01800,-0.02200,-0.05000,-0.06800,-0.05700
-0.06800,-0.05800,0.01000,0.06300,-0.03800,-0.02300,0.05200,-0.00600,-0.02700,-0.05700,-0.07300,-0.06900
-0.08700,-0.05400,0.03300,0.07000,-0.06000,-0.01000,0.05500,0.00400,-0.01500,-0.04100,-0.06100,-0.06300
-0.09500,-0.05500,0.04000,0.07400,-0.06700,-0.00700,0.06300,0.01100,-0.00800,-0.03900,-0.06800,-0.06500
-0.08600,-0.05600,0.03000,0.07000,-0.05700,-0.01300,0.05800,0.01400,-0.00500,-0.03100,-0.06000,-0.06000
-0.07900,-0.05400,0.02500,0.06600,-0.05200,-0.01400,0.06200,0.03000,0.01400,-0.02400,-0.06000,-0.06000
-0.07400,-0.05400,0.02000,0.06400,-0.04700,-0.01700,0.05800,0.02200,0.01400,-0.02600,-0.06000,-0.05800
-0.06100,-0.04600,0.01400,0.05300,-0.03700,-0.01600,0.06300,0.03100,0.01600,-0.02400,-0.05500,-0.05400
-0.05100,-0.04300,0.00800,0.04700,-0.03000,-0.01700,0.07000,0.03000,0.02100,-0.02600,-0.05600,-0.05600
-0.04300,-0.03800,0.00500,0.04000,-0.02400,-0.01600,0.07000,0.02900,0.02600,-0.02500,-0.05200,-0.05500
-0.02900,-0.03400,-0.00400,0.03200,-0.01200,-0.01900,0.07000,0.03300,0.02500,-0.02300,-0.06300,-0.06100
-0.03800,-0.03000,0.00800,0.03400,-0.02300,-0.01100,0.06900,0.04500,0.02500,-0.02000,-0.06600,-0.06000
-0.05700,-0.03400,0.02300,0.04500,-0.03900,-0.00500,0.07500,0.05200,0.03300,-0.01700,-0.06100,-0.06100
-0.06600,-0.04600,0.02000,0.05600,-0.04200,-0.01300,0.08300,0.05200,0.03300,-0.01500,-0.06100,-0.07400
-0.06400,-0.04400,0.02000,0.05400,-0.04200,-0.01200,0.08500,0.06500,0.03900,-0.01000,-0.05500,-0.07400
-0.05200,-0.02900,0.02300,0.04100,-0.03700,-0.00300,0.09100,0.08700,0.05700,-0.00900,-0.05600,-0.06900
-0.05600,-0.02200,0.03500,0.03800,-0.04500,0.00600,0.10600,0.10700,0.07700,-0.00100,-0.05900,-0.06700
-0.04700,-0.01800,0.02900,0.03200,-0.03800,0.00600,0.12400,0.13200,0.09900,0.01500,-0.05200,-0.06200
-0.04800,-0.01200,0.03600,0.03000,-0.04200,0.01200,0.13900,0.16600,0.11900,0.02900,-0.04300,-0.06000
-0.05500,0.00600,0.06100,0.02400,-0.05800,0.03300,0.16300,0.20700,0.15500,0.05400,-0.03700,-0.05300
-0.03400,0.03600,0.07000,-0.00100,-0.05200,0.05300,0.19100,0.25600,0.20000,0.08200,-0.02800,-0.04200
-0.03800,0.05900,0.09700,-0.01100,-0.06800,0.07800,0.21700,0.30000,0.24100,0.11400,-0.01400,-0.03200
-0.02500,0.08600,0.11100,-0.03100,-0.06800,0.09800,0.22500,0.33600,0.27600,0.14100,0.00800,-0.01200
-0.00700,0.11300,0.12000,-0.05300,-0.06400,0.11600,0.21400,0.36100,0.30300,0.16300,0.03200,0.00700
0.01300,0.14000,0.12700,-0.07700,-0.05700,0.13300,0.21100,0.35600,0.30200,0.17700,0.04600,0.03200
0.05200,0.15200,0.10000,-0.10200,-0.02500,0.12600,0.19500,0.32500,0.28600,0.16800,0.06900,0.06300
0.04700,0.13900,0.09200,-0.09300,-0.02300,0.11500,0.15100,0.28400,0.26600,0.14600,0.08400,0.07200
0.05900,0.12300,0.06500,-0.09100,-0.00300,0.09400,0.11400,0.23000,0.22600,0.12300,0.07500,0.06800
0.06500,0.09600,0.03000,-0.08100,0.01700,0.06300,0.08600,0.17300,0.18100,0.09900,0.06800,0.05700
0.03700,0.06100,0.02400,-0.04900,0.00600,0.04200,0.05700,0.12300,0.13400,0.07600,0.06000,0.04400
0.02900,0.03500,0.00500,-0.03200,0.01200,0.02000,0.05100,0.07800,0.09600,0.05000,0.05000,0.02800
0.03100,0.02900,-0.00200,-0.02900,0.01600,0.01300,0.04200,0.03600,0.05400,0.02600,0.04000,0.01500
0.02500,0.01000,-0.01500,-0.01800,0.02000,-0.00200,0.02300,0.00900,0.02400,0.01200,0.02400,0.01100
0.02700,-0.00800,-0.03400,-0.00900,0.03100,-0.02100,0.01500,-0.00900,0.01600,-0.00900,0.00700,0.00500
0.01800,-0.01400,-0.03200,-0.00200,0.02500,-0.02300,0.01200,-0.01900,0.00700,-0.02500,0.00200,-0.00100
-0.00400,-0.02700,-0.02300,0.01600,0.01000,-0.02500,0.00900,-0.02400,-0.00100,-0.02800,0.00000,-0.00600
0.00500,-0.03200,-0.03700,0.01400,0.02100,-0.03400,0.00400,-0.04100,-0.01600,-0.02900,-0.00700,-0.01200
0.00700,-0.03600,-0.04300,0.01500,0.02500,-0.03900,0.00100,-0.04700,-0.02600,-0.03300,-0.01000,-0.01400
-0.00200,-0.03400,-0.03200,0.01800,0.01600,-0.03300,-0.00200,-0.04300,-0.02800,-0.03900,-0.01500,-0.02500
-0.01000,-0.03500,-0.02500,0.02300,0.00800,-0.03000,0.00900,-0.04000,-0.03100,-0.04400,-0.02000,-0.03100
-0.01800,-0.03500,-0.01700,0.02700,0.00000,-0.02600,0.02100,-0.04000,-0.02700,-0.05000,-0.01600,-0.02900
-0.00400,-0.03500,-0.03100,0.02000,0.01400,-0.03200,0.02000,-0.03800,-0.02500,-0.04600,-0.01400,-0.03000
-0.01300,-0.04400,-0.03000,0.02900,0.00900,-0.03700,0.02000,-0.03500,-0.02100,-0.03900,-0.01500,-0.03000
-0.02300,-0.04400,-0.02100,0.03400,-0.00100,-0.03200,0.02000,-0.03500,-0.02000,-0.03500,-0.01500,-0.02900
-0.02700,-0.04000,-0.01200,0.03400,-0.00800,-0.02600,0.02300,-0.03200,-0.01700,-0.02700,-0.01500,-0.03400
-0.02900,-0.03700,-0.00700,0.03300,-0.01100,-0.02200,0.02700,-0.02600,-0.01000,-0.02800,-0.01400,-0.03600
-0.02300,-0.03200,-0.00900,0.02800,-0.00700,-0.02100,0.03700,-0.02200,-0.00600,-0.03000,-0.01000,-0.03300
-0.02400,-0.03000,-0.00500,0.02700,-0.01000,-0.01700,0.04100,-0.01700,0.00100,-0.02500,-0.00600,-0.02900
-0.01800,-0.03700,-0.01900,0.02700,0.00100,-0.02800,0.03800,-0.01300,0.00600,-0.02000,-0.00300,-0.02700
-0.01500,-0.03300,-0.01900,0.02400,0.00200,-0.02600,0.03500,-0.00900,0.01200,-0.01600,0.00200,-0.02400
-0.01800,-0.03100,-0.01300,0.02500,-0.00200,-0.02200,0.03900,-0.00200,0.01600,-0.01100,0.00500,-0.02200
-0.01800,-0.02900,-0.01100,0.02300,-0.00300,-0.02000,0.04600,-0.00300,0.01300,-0.00700,-0.00300,-0.03000
-0.00500,-0.01100,-0.00600,0.00900,0.00100,-0.00900,0.04300,-0.00600,0.01000,-0.00500,-0.00700,-0.03700
-0.02200,-0.02500,-0.00300,0.02400,-0.00900,-0.01400,0.03900,-0.00500,0.00800,-0.00400,-0.00200,-0.03400
-0.02600,-0.03300,-0.00700,0.02900,-0.00900,-0.02000,0.03600,-0.01000,0.00400,0.00000,0.00000,-0.03500
-0.01200,-0.02000,-0.00800,0.01700,-0.00200,-0.01300,0.03100,-0.01000,0.00900,0.00000,0.00400,-0.03500
-0.00800,-0.00700,0.00200,0.00800,-0.00500,-0.00200,0.03000,-0.01100,0.01100,-0.00600,0.00500,-0.03300
0.00000,-0.02900,-0.02900,0.01500,0.01500,-0.02900,0.03500,-0.02400,0.00500,-0.01200,0.00200,-0.03800
-0.01800,-0.05800,-0.04000,0.03800,0.01100,-0.04800,0.03300,-0.03000,0.00000,-0.01800,-0.00300,-0.03700
-0.01700,-0.04700,-0.03000,0.03200,0.00700,-0.03900,0.02900,-0.03200,-0.00300,-0.01900,-0.00500,-0.04200
-0.02000,-0.04400,-0.02400,0.03300,0.00200,-0.03400,0.02600,-0.03600,-0.00900,-0.02100,-0.00500,-0.05100
-0.01800,-0.03800,-0.02000,0.02800,0.00100,-0.02800,0.02100,-0.03500,-0.01200,-0.02300,-0.00800,-0.05000
0.00900,-0.03300,-0.04100,0.01200,0.02500,-0.03700,0.01900,-0.03500,-0.01200,-0.02600,-0.00800,-0.04800
0.00500,-0.03000,-0.03500,0.01300,0.02000,-0.03200,0.01200,-0.03500,-0.01900,-0.03000,-0.01000,-0.04500
-0.01600,-0.04000,-0.02400,0.02800,0.00400,-0.03100,0.02200,-0.03400,-0.02100,-0.02500,-0.01100,-0.04500
-0.02600,-0.05100,-0.02500,0.03900,0.00000,-0.03800,0.02500,-0.03700,-0.02000,-0.02300,-0.00700,-0.04300
-0.01900,-0.05000,-0.03100,0.03500,0.00600,-0.04000,0.01900,-0.04000,-0.02000,-0.01800,-0.00500,-0.04900
-0.00600,-0.04900,-0.04300,0.02800,0.01800,-0.04600,0.01700,-0.04100,-0.02300,-0.01500,-0.00400,-0.05100
-0.01300,-0.05200,-0.03800,0.03200,0.01200,-0.04500,0.01200,-0.03900,-0.02600,-0.01900,-0.01000,-0.04500
-0.00700,-0.04800,-0.04100,0.02700,0.01700,-0.04500,0.01000,-0.03600,-0.02500,-0.02400,-0.01500,-0.04500
0.00000,-0.03800,-0.03800,0.01900,0.01900,-0.03800,0.01600,-0.03400,-0.02500,-0.03000,-0.01500,-0.03900
-0.02300,-0.05600,-0.03400,0.04000,0.00600,-0.04500,0.02100,-0.03600,-0.02500,-0.02700,-0.01500,-0.04200
-0.01400,-0.05700,-0.04300,0.03600,0.01500,-0.05000,0.02000,-0.04800,-0.02500,-0.02300,-0.01500,-0.05400
-0.00900,-0.04800,-0.03900,0.02900,0.01500,-0.04400,0.02000,-0.05100,-0.02900,-0.02000,-0.01500,-0.05500
-0.01300,-0.04500,-0.03300,0.02900,0.01000,-0.03900,0.02000,-0.05000,-0.02900,-0.01400,-0.01500,-0.05500
-0.00900,-0.03800,-0.02900,0.02400,0.01000,-0.03300,0.02000,-0.05000,-0.02500,-0.01800,-0.01500,-0.05100
-0.01300,-0.03400,-0.02100,0.02400,0.00400,-0.02700,0.01700,-0.05000,-0.02500,-0.01900,-0.01500,-0.05000
-0.01000,-0.03500,-0.02500,0.02200,0.00700,-0.03000,0.01500,-0.04900,-0.02000,-0.01700,-0.01500,-0.04800
-0.01000,-0.03400,-0.02500,0.02200,0.00800,-0.02900,0.01500,-0.04200,-0.02000,-0.02500,-0.01500,-0.05500
-0.00600,-0.03000,-0.02400,0.01800,0.00900,-0.02600,0.01500,-0.05100,-0.03200,-0.02600,-0.01600,-0.06600
-0.02700,-0.04500,-0.01800,0.03600,-0.00400,-0.03200,0.01500,-0.05700,-0.03600,-0.02400,-0.01100,-0.06500
-0.01800,-0.04200,-0.02400,0.03000,0.00300,-0.03300,0.01600,-0.05400,-0.03400,-0.02200,-0.01000,-0.06500
-0.00500,-0.03900,-0.03400,0.02200,0.01500,-0.03600,0.01900,-0.05300,-0.03500,-0.01800,-0.00800,-0.06500
-0.01500,-0.03400,-0.01900,0.02400,0.00200,-0.02600,0.02000,-0.04800,-0.03500,-0.02200,-0.00300,-0.06500
0.00400,-0.02800,-0.03200,0.01200,0.01800,-0.03000,0.02000,-0.05200,-0.03500,-0.02300,-0.00900,-0.06100
-0.02500,-0.05100,-0.02600,0.03800,0.00100,-0.03800,0.02600,-0.03700,-0.02800,-0.01700,0.00900,-0.05400
-0.03200,-0.04100,-0.00900,0.03700,-0.01100,-0.02500,0.04400,-0.02400,-0.01700,-0.00700,0.02200,-0.04700
0.01000,0.00600,-0.00400,-0.00800,0.00700,0.00100,0.04700,-0.03000,-0.01400,0.00000,0.01300,-0.04200
0.01100,0.02900,0.01900,-0.02000,-0.00400,0.02400,0.03500,-0.02100,-0.00600,0.00500,0.01900,-0.03400
-0.02600,-0.00200,0.02400,0.01400,-0.02400,0.01100,0.02500,-0.01700,-0.00400,0.01600,0.02800,-0.04800
-0.00400,-0.00900,-0.00400,0.00600,0.00000,-0.00600,0.01600,-0.00600,0.00300,0.01700,0.03200,-0.03800
0.03800,-0.01400,-0.05100,-0.01200,0.04500,-0.03200,0.00700,-0.01300,0.00400,0.02400,0.04200,-0.01900
0.04400,-0.00700,-0.05100,-0.01900,0.04800,-0.02900,-0.00100,-0.04100,-0.01000,0.01400,0.04300,-0.01800
0.04000,-0.00400,-0.04400,-0.01800,0.04200,-0.02400,0.00400,-0.04900,-0.01300,0.00700,0.02700,-0.01500
0.03400,-0.01400,-0.04800,-0.01000,0.04100,-0.03100,-0.00700,-0.06000,-0.03500,0.00800,0.01800,-0.04500
0.06900,0.00300,-0.06600,-0.03600,0.06800,-0.03100,-0.03100,-0.04900,-0.04600,-0.01600,0.03800,-0.05700
0.03400,-0.03000,-0.06500,-0.00100,0.05000,-0.04700,-0.03000,-0.04800,-0.04100,-0.03400,0.03500,-0.06100
-0.00600,-0.03900,-0.03400,0.02300,0.01400,-0.03600,-0.01300,-0.07400,-0.04300,-0.03600,0.01500,-0.06400
0.00400,-0.05700,-0.06200,0.02700,0.03300,-0.05900,-0.00800,-0.06800,-0.02600,-0.03900,0.00800,-0.07700
-0.01400,-0.08600,-0.07200,0.05000,0.03000,-0.07900,-0.01300,-0.07100,-0.04600,-0.05100,-0.01900,-0.10300
-0.00700,-0.06700,-0.05900,0.03700,0.02600,-0.06300,-0.01300,-0.07000,-0.05200,-0.03900,-0.02000,-0.08700
-0.02000,-0.06900,-0.04900,0.04500,0.01500,-0.05900,-0.00100,-0.06800,-0.05900,-0.05900,-0.04800,-0.09500
-0.02000,-0.07200,-0.05200,0.04700,0.01600,-0.06200,-0.00400,-0.07200,-0.05100,-0.04100,-0.03200,-0.08800
-0.03100,-0.09300,-0.06200,0.06200,0.01500,-0.07700,0.01100,-0.04900,-0.05700,-0.05800,-0.04700,-0.10800
-0.03400,-0.06700,-0.03300,0.05100,0.00000,-0.05000,0.00800,-0.06100,-0.04900,-0.03700,-0.03000,-0.10900
-0.00900,-0.01800,-0.00900,0.01400,0.00000,-0.01300,0.05800,0.07500,0.09500,0.08800,0.04300,-0.06300
0.16800,0.07800,-0.09000,-0.12300,0.12900,-0.00600,0.10500,0.39800,0.54500,0.51200,0.36000,0.12500
0.80800,0.36500,-0.44300,-0.58600,0.62500,-0.03900,-0.28900,0.46400,1.03100,1.07300,1.09500,0.64000
1.01800,0.27000,-0.74800,-0.64400,0.88300,-0.23900,-0.88700,-0.47200,-0.01300,0.13100,0.79100,0.61300
0.48700,-0.11500,-0.60300,-0.18600,0.54500,-0.35900,-1.10100,-1.43900,-1.33400,-1.07700,-0.04900,0.16300
0.16200,-0.13600,-0.29800,-0.01300,0.23000,-0.21700,-0.76500,-1.04300,-0.99100,-0.81500,-0.11400,0.07400
0.05100,-0.04500,-0.09600,-0.00300,0.07400,-0.07000,-0.31400,-0.45500,-0.46300,-0.40100,-0.08100,-0.00400
-0.02200,-0.04800,-0.02700,0.03500,0.00200,-0.03700,-0.11300,-0.23800,-0.23900,-0.20500,-0.06400,-0.08500
-0.04100,-0.06700,-0.02600,0.05400,-0.00700,-0.04600,-0.00900,-0.08500,-0.09000,-0.10000,-0.05700,-0.12300
-0.04400,-0.04500,-0.00100,0.04500,-0.02200,-0.02300,0.02500,-0.06100,-0.07800,-0.07900,-0.06300,-0.13800
-0.04700,-0.06600,-0.01900,0.05700,-0.01400,-0.04200,0.03600,-0.02600,-0.03800,-0.04400,-0.04700,-0.13500
-0.04600,-0.08400,-0.03800,0.06600,-0.00400,-0.06100,0.04200,-0.02400,-0.04100,-0.05200,-0.05600,-0.15000
-0.03600,-0.06100,-0.02500,0.04900,-0.00500,-0.04300,0.05200,-0.01000,-0.02300,-0.03700,-0.04200,-0.14100
-0.05000,-0.07200,-0.02200,0.06100,-0.01300,-0.04700,0.06400,-0.00400,-0.02400,-0.04000,-0.04800,-0.14700
-0.05000,-0.06300,-0.01300,0.05600,-0.01800,-0.03800,0.05700,-0.00200,-0.02000,-0.03200,-0.04400,-0.14400
-0.05100,-0.06000,-0.00900,0.05600,-0.02100,-0.03400,0.06200,0.00800,-0.01500,-0.02800,-0.04500,-0.14500
-0.05700,-0.05600,0.00100,0.05600,-0.02900,-0.02700,0.06200,0.01000,-0.01200,-0.02600,-0.04500,-0.14600
-0.05200,-0.04900,0.00300,0.05100,-0.02800,-0.02300,0.06700,0.01500,-0.01000,-0.01900,-0.04300,-0.14400
-0.04600,-0.05600,-0.01000,0.05100,-0.01800,-0.03300,0.06400,0.00900,-0.01600,-0.01900,-0.04100,-0.14800
-0.05400,-0.06900,-0.01500,0.06100,-0.01900,-0.04200,0.06500,0.01400,-0.00700,-0.01300,-0.03700,-0.15000
-0.04500,-0.05900,-0.01500,0.05300,-0.01500,-0.03700,0.06600,0.02500,-0.00500,-0.01000,-0.03500,-0.15000
-0.04100,-0.05200,-0.01100,0.04700,-0.01500,-0.03100,0.06300,0.02600,0.00300,-0.01600,-0.03200,-0.14900
-0.05300,-0.07200,-0.01900,0.06200,-0.01700,-0.04500,0.07400,0.03500,0.00700,-0.03100,-0.02900,-0.15600
-0.04400,-0.07200,-0.02900,0.05800,-0.00700,-0.05000,0.07800,0.04200,0.01400,-0.03300,-0.03600,-0.16200
-0.05300,-0.06300,-0.01000,0.05800,-0.02100,-0.03600,0.08500,0.05300,0.02500,-0.02200,-0.05300,-0.15700
-0.04900,-0.06000,-0.01200,0.05500,-0.01800,-0.03600,0.09500,0.06900,0.02800,-0.02000,-0.05300,-0.15500
-0.04400,-0.07500,-0.03200,0.06000,-0.00600,-0.05300,0.10400,0.08900,0.04900,0.00100,-0.04500,-0.15200
-0.05300,-0.06400,-0.01200,0.05800,-0.02000,-0.03800,0.12100,0.12000,0.07600,0.02600,-0.04000,-0.14800
-0.06000,-0.03700,0.02300,0.04800,-0.04100,-0.00700,0.13900,0.14600,0.09600,0.03300,-0.03500,-0.15000
-0.06500,-0.01600,0.04900,0.04000,-0.05700,0.01600,0.15800,0.18800,0.12800,0.05700,-0.02400,-0.14200
-0.03900,0.01200,0.05100,0.01300,-0.04500,0.03200,0.18300,0.23300,0.17000,0.08800,-0.00900,-0.11800
-0.03200,0.03600,0.06800,-0.00200,-0.05000,0.05200,0.20900,0.27500,0.21000,0.11900,0.00300,-0.10300
-0.01800,0.05900,0.07600,-0.02100,-0.04700,0.06700,0.22000,0.31100,0.24100,0.14300,0.02400,-0.09400
-0.00600,0.07800,0.08400,-0.03700,-0.04500,0.08100,0.22500,0.33600,0.26900,0.16700,0.04700,-0.06400
0.01800,0.11400,0.09700,-0.06600,-0.04000,0.10500,0.21900,0.33500,0.27900,0.17500,0.07200,-0.03300
0.06100,0.12800,0.06800,-0.09500,-0.00400,0.09800,0.18500,0.30000,0.25600,0.16100,0.08900,-0.02900
0.07000,0.12400,0.05400,-0.09800,0.00800,0.08900,0.14500,0.25900,0.21900,0.15400,0.09400,-0.03000
0.07600,0.12100,0.04500,-0.09900,0.01500,0.08300,0.10700,0.21100,0.18300,0.12800,0.08900,-0.02300
0.05500,0.08400,0.02900,-0.07000,0.01300,0.05600,0.07300,0.15900,0.14500,0.09700,0.07800,-0.02900
0.06100,0.04500,-0.01600,-0.05300,0.03900,0.01400,0.05900,0.10400,0.10400,0.07900,0.07000,-0.05100
0.04000,0.01800,-0.02100,-0.02900,0.03000,-0.00100,0.03600,0.05600,0.06800,0.05800,0.06100,-0.06400
0.00800,-0.00600,-0.01400,-0.00100,0.01100,-0.01000,0.01800,0.02900,0.03700,0.03800,0.04900,-0.06900
0.03900,-0.03900,-0.07700,0.00000,0.05900,-0.05800,0.01600,0.00100,0.01300,0.02700,0.03500,-0.07500
0.03000,-0.04700,-0.07700,0.00800,0.05400,-0.06100,0.01000,-0.01000,0.00200,0.01700,0.02200,-0.08500
0.02500,-0.03600,-0.06200,0.00600,0.04400,-0.04900,0.00700,-0.02400,-0.00900,0.00900,0.01800,-0.10100
0.03000,-0.03500,-0.06500,0.00300,0.04700,-0.05000,0.00000,-0.04200,-0.02100,0.00200,0.01200,-0.10600
0.03200,-0.02300,-0.05600,-0.00400,0.04400,-0.03900,0.00300,-0.03900,-0.02700,-0.00400,0.00900,-0.10400
0.01600,-0.04100,-0.05700,0.01300,0.03700,-0.04900,0.00600,-0.04100,-0.03300,-0.01100,0.00300,-0.10600
-0.01400,-0.06300,-0.04900,0.03900,0.01700,-0.05600,-0.00100,-0.03900,-0.03800,-0.01700,0.00000,-0.10300
-0.01000,-0.05900,-0.04900,0.03400,0.02000,-0.05400,-0.00400,-0.04200,-0.04800,-0.02400,0.00600,-0.10600
-0.01700,-0.06100,-0.04300,0.03900,0.01300,-0.05200,-0.00900,-0.05000,-0.05500,-0.03000,-0.00300,-0.11700
-0.00700,-0.06000,-0.05200,0.03400,0.02300,-0.05600,-0.01400,-0.04500,-0.04900,-0.02400,0.00700,-0.11200
0.00700,-0.06000,-0.06800,0.02700,0.03700,-0.06400,-0.01300,-0.04000,-0.04200,-0.01700,0.00900,-0.10900
0.00700,-0.05800,-0.06500,0.02600,0.03600,-0.06100,-0.00300,-0.03400,-0.03600,-0.01100,0.00000,-0.10600
0.00600,-0.05000,-0.05700,0.02200,0.03200,-0.05300,0.00100,-0.02900,-0.02800,-0.00400,0.00400,-0.10100
0.00100,-0.04500,-0.04500,0.02200,0.02300,-0.04500,0.01100,-0.02400,-0.02800,0.00500,-0.00600,-0.09900
0.01000,-0.03700,-0.04700,0.01300,0.02900,-0.04200,0.02500,-0.01800,-0.02800,0.01400,-0.00500,-0.09500
-0.01000,-0.03200,-0.02100,0.02100,0.00600,-0.02600,0.02500,-0.01100,-0.01900,0.02300,0.00200,-0.09500
0.00400,-0.02400,-0.02800,0.01000,0.01600,-0.02600,0.02400,-0.00400,-0.00900,0.02500,0.00600,-0.09400
0.02600,-0.03400,-0.06000,0.00400,0.04400,-0.04700,0.02000,0.00300,-0.00800,0.02800,0.01200,-0.10100
-0.01500,-0.05800,-0.04300,0.03600,0.01400,-0.05000,0.02000,0.00900,-0.01100,0.04000,0.01800,-0.10600
-0.01500,-0.06100,-0.04500,0.03800,0.01500,-0.05300,0.02000,0.00700,-0.00700,0.04000,0.02000,-0.10200
-0.02500,-0.06000,-0.03400,0.04300,0.00500,-0.04700,0.02000,0.00400,-0.00300,0.04000,0.02000,-0.10000
-0.02800,-0.06000,-0.03200,0.04400,0.00200,-0.04600,0.02800,0.00200,-0.00100,0.03700,0.03300,-0.09700
-0.01600,-0.06000,-0.04400,0.03800,0.01400,-0.05200,0.02500,-0.00300,0.00500,0.03400,0.03400,-0.09400
-0.02400,-0.05900,-0.03500,0.04200,0.00600,-0.04700,0.01700,-0.01100,0.01000,0.03600,0.02600,-0.09200
-0.00600,-0.05300,-0.04700,0.03000,0.02100,-0.04900,0.01100,-0.00100,0.01700,0.03400,0.02500,-0.08900
0.00200,-0.04600,-0.04800,0.02200,0.02500,-0.04600,0.00100,0.00300,0.01900,0.03900,0.01700,-0.08600
0.01600,-0.03900,-0.05500,0.01200,0.03600,-0.04700,-0.00200,-0.02100,0.01300,0.04000,0.01600,-0.08300
0.02700,-0.03200,-0.05900,0.00300,0.04300,-0.04600,0.00500,-0.03100,0.00600,0.03500,0.02000,-0.08000
0.02100,-0.02600,-0.04600,0.00200,0.03400,-0.03600,0.00600,-0.02900,-0.00100,0.03300,0.02000,-0.08100
0.01300,-0.03800,-0.05100,0.01300,0.03200,-0.04400,0.00300,-0.03000,-0.00700,0.02800,0.02000,-0.08600
0.01600,-0.05300,-0.06900,0.01800,0.04300,-0.06100,0.00000,-0.03000,-0.01400,0.02500,0.02000,-0.08200
0.02800,-0.05300,-0.08100,0.01300,0.05500,-0.06700,0.00000,-0.03000,-0.01500,0.03700,0.02800,-0.07600
0.02200,-0.04700,-0.06900,0.01300,0.04600,-0.05800,0.00700,-0.03000,-0.01700,0.04100,0.03100,-0.07300
0.02200,-0.04200,-0.06400,0.01000,0.04400,-0.05300,0.00600,-0.03000,-0.01700,0.03600,0.02900,-0.06600
0.02200,-0.03600,-0.05800,0.00800,0.04000,-0.04700,0.00500,-0.03000,-0.01400,0.03500,0.02700,-0.06800
0.01900,-0.03000,-0.04900,0.00600,0.03400,-0.04000,0.00400,-0.03500,-0.02700,0.03000,0.02400,-0.08000
0.01500,-0.05300,-0.06800,0.02000,0.04100,-0.06000,0.00000,-0.03500,-0.02900,0.03000,0.02500,-0.07700
0.01500,-0.06100,-0.07600,0.02400,0.04600,-0.06800,0.00000,-0.02900,-0.02100,0.03500,0.02500,-0.07000
0.01600,-0.05400,-0.07000,0.01900,0.04400,-0.06100,0.00100,-0.02800,-0.02000,0.03500,0.02500,-0.06900
0.01700,-0.05300,-0.07000,0.01800,0.04400,-0.06100,-0.00200,-0.02100,-0.01300,0.03400,0.02500,-0.06100
0.02400,-0.04600,-0.07000,0.01100,0.04700,-0.05800,0.00000,-0.02200,-0.01100,0.02800,0.02500,-0.06300
0.02400,-0.04700,-0.07100,0.01200,0.04800,-0.05800,0.00400,-0.03700,-0.01900,0.02700,0.02600,-0.07100
0.01900,-0.04500,-0.06500,0.01300,0.04200,-0.05500,-0.00500,-0.04100,-0.02000,0.02100,0.02200,-0.06700
0.01200,-0.06100,-0.07300,0.02500,0.04300,-0.06700,-0.01200,-0.03800,-0.02100,0.02100,0.01900,-0.06100
0.00900,-0.06900,-0.07900,0.03000,0.04400,-0.07400,-0.01500,-0.03300,-0.02100,0.03400,0.01500,-0.05800
0.01100,-0.06000,-0.07000,0.02500,0.04100,-0.06500,-0.01300,-0.02800,-0.01700,0.03700,0.01200,-0.05200
0.00900,-0.05700,-0.06600,0.02400,0.03800,-0.06100,-0.00900,-0.01900,-0.01300,0.04600,0.00700,-0.05000
0.01100,-0.04900,-0.06000,0.02000,0.03500,-0.05500,-0.00600,-0.03000,-0.01100,0.05200,0.00600,-0.06300
0.00900,-0.04500,-0.05400,0.01800,0.03200,-0.05000,-0.00100,-0.04300,-0.00400,0.04900,0.02400,-0.06900
0.02200,-0.03600,-0.05800,0.00700,0.04100,-0.04700,0.00100,-0.02700,-0.00800,0.05000,0.02400,-0.05700
0.04700,-0.01900,-0.06600,-0.01400,0.05700,-0.04200,0.01700,-0.01800,0.00000,0.06000,0.02000,-0.04800
0.04200,-0.01900,-0.06100,-0.01100,0.05200,-0.04000,0.03700,-0.01400,0.02800,0.07000,0.03400,-0.03800
0.03000,-0.02900,-0.05900,0.00000,0.04400,-0.04400,0.03700,-0.00900,0.03100,0.07600,0.03900,-0.03100
0.04200,-0.01200,-0.05400,-0.01400,0.04800,-0.03300,0.02900,-0.00700,0.03000,0.08100,0.03600,-0.02400
0.04300,-0.00800,-0.05100,-0.01700,0.04700,-0.02900,0.01400,-0.00100,0.02900,0.07400,0.02300,-0.01700
0.05400,0.00800,-0.04600,-0.03100,0.05000,-0.01900,-0.00700,0.00000,0.02400,0.07200,0.04600,-0.01100
0.09600,0.04900,-0.04700,-0.07300,0.07200,0.00100,-0.02800,-0.00400,0.02600,0.06700,0.07600,-0.00200
0.11400,0.04200,-0.07200,-0.07800,0.09300,-0.01500,-0.04000,-0.01100,0.02100,0.06400,0.07100,-0.00800
0.10600,0.03500,-0.07100,-0.07000,0.08800,-0.01800,-0.04100,-0.01400,0.01500,0.06100,0.06500,-0.01600
0.06800,0.00300,-0.06500,-0.03500,0.06600,-0.03100,-0.04000,-0.01900,0.00900,0.05500,0.05700,-0.01300
0.03200,-0.02300,-0.05600,-0.00400,0.04400,-0.03900,-0.03800,-0.02400,0.00600,0.05600,0.05300,-0.00900
0.02500,-0.03100,-0.05600,0.00300,0.04100,-0.04300,-0.03200,-0.02700,-0.00300,0.04600,0.03800,-0.02900
0.02000,-0.06400,-0.08400,0.02200,0.05200,-0.07300,-0.03200,-0.03200,-0.00400,0.05000,0.03100,-0.03700
0.03100,-0.06800,-0.10000,0.01800,0.06600,-0.08400,-0.02300,-0.02800,-0.01400,0.03800,0.01400,-0.04600
0.02800,-0.08000,-0.10700,0.02600,0.06800,-0.09300,-0.02900,-0.03800,-0.01500,0.04300,0.01400,-0.06100
0.00800,-0.09700,-0.10500,0.04500,0.05700,-0.10100,-0.03200,-0.03800,-0.01400,0.03500,0.00300,-0.07000
-0.00200,-0.09500,-0.09300,0.04800,0.04600,-0.09300,-0.02400,-0.03500,-0.01800,0.03300,-0.00400,-0.06600
-0.00200,-0.09400,-0.09200,0.04800,0.04600,-0.09300,-0.03100,-0.03000,-0.01000,0.03600,-0.00400,-0.05800
-0.01600,-0.09400,-0.07700,0.05500,0.03100,-0.08500,-0.00200,-0.01900,-0.01500,0.01700,-0.02600,-0.06800
-0.00800,-0.05300,-0.04400,0.03100,0.01800,-0.04800,0.01100,0.02600,0.06300,0.10400,0.02500,-0.03200
0.06500,-0.00400,-0.06800,-0.03000,0.06700,-0.03600,0.09400,0.29000,0.35100,0.35800,0.16900,0.04200
0.52200,0.25000,-0.27200,-0.38500,0.39700,-0.01100,-0.06800,0.55900,0.99500,1.09400,0.92900,0.54000
0.99200,0.42800,-0.56500,-0.71000,0.77800,-0.06800,-0.63400,0.00800,0.64700,0.88700,1.25100,0.92800
0.63600,0.10100,-0.53500,-0.36800,0.58500,-0.21700,-1.02200,-1.14500,-0.90800,-0.59100,0.37800,0.53200
0.17200,-0.12100,-0.29400,-0.02600,0.23300,-0.20700,-0.92100,-1.29400,-1.23500,-0.96500,-0.09500,0.20900
0.06600,-0.06500,-0.13100,0.00000,0.09800,-0.09800,-0.49100,-0.64200,-0.62300,-0.51000,-0.09300,0.10600
0.01700,-0.02600,-0.04300,0.00500,0.03000,-0.03400,-0.18400,-0.29400,-0.29800,-0.23200,-0.09400,0.00800
-0.00100,-0.04400,-0.04400,0.02300,0.02200,-0.04400,-0.05300,-0.10500,-0.09400,-0.06400,-0.06200,-0.03500
-0.04500,-0.08500,-0.03900,0.06500,-0.00300,-0.06200,0.00600,-0.03600,-0.04700,-0.03600,-0.06700,-0.07800
-0.04100,-0.07600,-0.03500,0.05900,-0.00300,-0.05500,0.01900,-0.01900,-0.01400,0.00200,-0.05000,-0.06600
-0.04300,-0.07500,-0.03200,0.05900,-0.00500,-0.05300,0.03700,-0.00100,-0.00500,0.00800,-0.05600,-0.07200
-0.03900,-0.06900,-0.03100,0.05400,-0.00400,-0.05000,0.03700,-0.00400,0.00300,0.01800,-0.04800,-0.06800
-0.04400,-0.08000,-0.03600,0.06200,-0.00300,-0.05800,0.04100,0.02500,0.01500,0.02800,-0.04700,-0.08000
-0.06000,-0.08600,-0.02600,0.07300,-0.01700,-0.05600,0.05000,0.02400,0.00700,0.03000,-0.04500,-0.09100
-0.04600,-0.06800,-0.02200,0.05700,-0.01200,-0.04400,0.05600,0.02600,0.01100,0.03700,-0.04800,-0.07800
-0.06000,-0.07400,-0.01400,0.06800,-0.02300,-0.04400,0.05000,0.02500,0.00100,0.02800,-0.05000,-0.07600
-0.06800,-0.07500,-0.00700,0.07200,-0.03000,-0.04100,0.04800,0.02500,0.01800,0.02900,-0.04400,-0.06600
-0.06300,-0.07100,-0.00900,0.06700,-0.02700,-0.04000,0.04300,0.02500,0.03000,0.02200,-0.04000,-0.06200
-0.04600,-0.07000,-0.02400,0.05800,-0.01100,-0.04600,0.04000,0.02000,0.03000,0.02000,-0.05000,-0.06400
-0.03300,-0.06500,-0.03200,0.05000,0.00000,-0.04900,0.04500,0.03100,0.03000,0.03600,-0.06600,-0.06600
-0.04500,-0.06500,-0.01900,0.05500,-0.01300,-0.04200,0.05500,0.03800,0.03000,0.03900,-0.06500,-0.06100
-0.05100,-0.06100,-0.00900,0.05600,-0.02100,-0.03500,0.05300,0.03300,0.02800,0.03100,-0.06500,-0.06100
-0.04600,-0.05900,-0.01300,0.05300,-0.01700,-0.03600,0.05700,0.04400,0.03100,0.02900,-0.06500,-0.07100
-0.04700,-0.06000,-0.01300,0.05400,-0.01700,-0.03600,0.07600,0.06200,0.04400,0.02400,-0.06500,-0.07000
-0.04500,-0.05300,-0.00800,0.04900,-0.01800,-0.03000,0.07400,0.06700,0.04600,0.01800,-0.06300,-0.06600
-0.05800,-0.05800,0.00000,0.05800,-0.02900,-0.02900,0.08200,0.08500,0.06500,0.03100,-0.05700,-0.06400
-0.04800,-0.04700,0.00100,0.04700,-0.02400,-0.02200,0.09100,0.09900,0.08400,0.04800,-0.05400,-0.06000
-0.04700,-0.02800,0.01900,0.03700,-0.03200,-0.00500,0.10400,0.12100,0.10200,0.05700,-0.04800,-0.05900
-0.05600,-0.02100,0.03500,0.03800,-0.04600,0.00700,0.12400,0.16200,0.13600,0.07600,-0.04500,-0.05000
-0.02500,0.00700,0.03200,0.00900,-0.02900,0.01900,0.14000,0.19900,0.16700,0.10300,-0.03600,-0.04200
-0.03600,0.01900,0.05500,0.00800,-0.04600,0.03700,0.16300,0.23700,0.20600,0.13300,-0.02300,-0.03300
-0.01900,0.05400,0.07200,-0.01800,-0.04600,0.06300,0.17400,0.27400,0.24100,0.15900,-0.01000,-0.01900
0.00900,0.09200,0.08300,-0.05100,-0.03700,0.08700,0.17800,0.30600,0.27200,0.18100,0.01800,0.00400
0.00700,0.11100,0.10500,-0.05900,-0.04900,0.10700,0.17100,0.30600,0.28900,0.20000,0.04200,0.03200
0.04800,0.14000,0.09200,-0.09400,-0.02200,0.11600,0.15800,0.29400,0.28600,0.20200,0.05300,0.04200
0.06300,0.13600,0.07300,-0.10000,-0.00500,0.10500,0.13100,0.26800,0.26700,0.18700,0.07400,0.06100
0.05200,0.11600,0.06400,-0.08400,-0.00600,0.09000,0.09900,0.21500,0.23100,0.16900,0.08800,0.06300
0.07300,0.10700,0.03400,-0.09000,0.01900,0.07000,0.07100,0.17000,0.19000,0.14500,0.08100,0.04300
0.06500,0.09700,0.03200,-0.08100,0.01600,0.06400,0.04200,0.12000,0.15000,0.12200,0.06700,0.04500
0.03800,0.06000,0.02200,-0.04900,0.00700,0.04100,0.02900,0.06900,0.11100,0.10300,0.05200,0.02900
0.02700,0.02700,0.00000,-0.02700,0.01300,0.01400,0.02300,0.02600,0.08000,0.08200,0.03500,0.01100
0.02100,0.01300,-0.00800,-0.01700,0.01500,0.00300,0.01600,-0.00200,0.05100,0.06300,0.01900,0.00400
0.01400,0.00400,-0.01100,-0.00900,0.01200,-0.00400,0.00900,-0.01900,0.02800,0.04500,0.00300,-0.00800
0.00400,0.00300,-0.00100,-0.00300,0.00200,0.00100,0.00300,-0.03200,0.01700,0.03100,-0.01100,-0.01300
-0.02000,-0.01200,0.00800,0.01600,-0.01300,-0.00200,-0.00300,-0.03700,0.00900,0.02200,-0.01900,-0.02100
-0.03700,-0.02400,0.01300,0.03000,-0.02500,-0.00500,-0.00600,-0.04400,0.00000,0.01600,-0.02100,-0.02700
-0.01400,-0.02500,-0.01100,0.02000,-0.00100,-0.01800,-0.00400,-0.05400,-0.00900,0.00900,-0.01900,-0.03500
-0.00500,-0.02500,-0.02000,0.01500,0.00800,-0.02200,-0.00900,-0.06000,-0.03000,0.00200,-0.02600,-0.04400
-0.01900,-0.02600,-0.00700,0.02200,-0.00600,-0.01600,-0.01000,-0.05700,-0.04100,-0.00200,-0.02400,-0.04500
-0.02100,-0.02400,-0.00300,0.02300,-0.00800,-0.01300,-0.00500,-0.05700,-0.04000,-0.01400,-0.02700,-0.04500
-0.01000,-0.03000,-0.02000,0.02000,0.00500,-0.02500,-0.00300,-0.06800,-0.03500,-0.02000,-0.03900,-0.04500
-0.00800,-0.02900,-0.02100,0.01800,0.00700,-0.02500,0.00200,-0.06200,-0.02600,-0.01400,-0.04100,-0.04600
-0.03500,-0.02500,0.01000,0.03000,-0.02300,-0.00700,0.00500,-0.04800,-0.01700,-0.00400,-0.03900,-0.04700
-0.04600,-0.04000,0.00600,0.04300,-0.02600,-0.01600,0.01000,-0.04300,-0.00900,-0.00400,-0.03600,-0.03700
-0.03000,-0.03700,-0.00800,0.03400,-0.01100,-0.02200,0.01800,-0.04400,-0.00300,0.00300,-0.03500,-0.04000
-0.03500,-0.03200,0.00400,0.03300,-0.01900,-0.01400,0.01500,-0.03600,0.00000,0.02000,-0.03400,-0.05200
-0.03900,-0.02700,0.01200,0.03300,-0.02500,-0.00700,0.01500,-0.02400,0.00400,0.02000,-0.03000,-0.04800
-0.04800,-0.01900,0.02900,0.03300,-0.03900,0.00500,0.02700,-0.01700,0.02400,0.03800,-0.02800,-0.04500
-0.05300,-0.01600,0.03700,0.03400,-0.04400,0.01000,0.03000,-0.01400,0.03200,0.04800,-0.02500,-0.04300
-0.04000,-0.00900,0.03100,0.02400,-0.03500,0.01100,0.02400,-0.01600,0.02900,0.04300,-0.02200,-0.03900
-0.03700,-0.00800,0.03000,0.02300,-0.03300,0.01100,0.02200,-0.01500,0.03100,0.04300,-0.01900,-0.04000
-0.02500,0.00000,0.02500,0.01200,-0.02500,0.01200,0.01700,-0.01500,0.03000,0.03900,-0.02400,-0.04000
-0.02800,-0.00300,0.02500,0.01500,-0.02600,0.01100,0.01400,-0.01800,0.03000,0.04100,-0.02500,-0.03900
-0.02800,-0.00900,0.01900,0.01800,-0.02300,0.00500,0.01100,-0.02600,0.02300,0.03400,-0.02500,-0.04200
-0.02200,-0.00400,0.01800,0.01200,-0.02000,0.00700,0.00600,-0.03000,0.01500,0.02800,-0.02500,-0.04600
-0.02800,-0.01400,0.01400,0.02000,-0.02100,0.00000,0.00400,-0.03200,0.00900,0.02100,-0.02700,-0.04500
-0.03600,-0.01000,0.02600,0.02300,-0.03100,0.00800,-0.00100,-0.04000,0.00100,0.01500,-0.03000,-0.04400
-0.05000,-0.01800,0.03200,0.03400,-0.04100,0.00600,-0.00400,-0.04000,-0.00600,0.00700,-0.03100,-0.04600
-0.05000,-0.02600,0.02300,0.03800,-0.03600,-0.00100,-0.00800,-0.04200,-0.01300,0.00600,-0.02900,-0.04300
-0.03900,-0.02400,0.01500,0.03200,-0.02600,-0.00400,-0.01300,-0.04800,-0.01600,0.01100,-0.03300,-0.04700
-0.03200,-0.02600,0.00600,0.02900,-0.01900,-0.00900,-0.01100,-0.05100,-0.01400,0.01000,-0.04500,-0.06000
-0.03400,0.00000,0.03400,0.01700,-0.03400,0.01700,-0.00900,-0.04900,-0.02100,0.01000,-0.04500,-0.06000
-0.03100,-0.00200,0.03000,0.01600,-0.03000,0.01400,-0.01100,-0.05100,-0.02600,0.00400,-0.04500,-0.06000
-0.03800,-0.02200,0.01500,0.02900,-0.02600,-0.00300,-0.00900,-0.04900,-0.02400,0.00700,-0.04500,-0.06000
-0.03700,-0.03200,0.00500,0.03500,-0.02100,-0.01300,-0.01400,-0.05300,-0.02600,0.00000,-0.04500,-0.06000
-0.04700,-0.03400,0.01300,0.04000,-0.03000,-0.01000,-0.02100,-0.06200,-0.02600,0.00100,-0.04500,-0.05800
-0.06300,-0.02900,0.03500,0.04500,-0.04900,0.00300,-0.01900,-0.05800,-0.02400,0.01700,-0.04500,-0.05400
-0.02400,-0.02200,0.00100,0.02300,-0.01200,-0.01000,-0.01600,-0.05600,-0.02100,0.01100,-0.04500,-0.05500
-0.01500,-0.02300,-0.00800,0.01900,-0.00300,-0.01500,-0.01300,-0.05000,-0.01900,0.00800,-0.04500,-0.05500
-0.03000,-0.02700,0.00400,0.02900,-0.01700,-0.01100,-0.01000,-0.05600,-0.01400,0.00500,-0.04500,-0.05500
-0.03400,-0.02700,0.00700,0.03100,-0.02000,-0.01000,-0.01100,-0.07200,-0.01700,0.00000,-0.04600,-0.05500
-0.03800,-0.04200,-0.00400,0.04000,-0.01700,-0.02300,-0.01600,-0.06600,-0.02500,-0.00300,-0.04900,-0.05500
-0.03000,-0.04400,-0.01400,0.03700,-0.00800,-0.02800,-0.02400,-0.06300,-0.02500,0.00100,-0.05000,-0.05500
-0.04400,-0.03000,0.01500,0.03700,-0.02900,-0.00700,-0.02600,-0.06000,-0.02500,0.00400,-0.05000,-0.05400
-0.06700,-0.04100,0.02700,0.05400,-0.04700,-0.00700,-0.02400,-0.05400,-0.02400,-0.00300,-0.04800,-0.05400
-0.07100,-0.05400,0.01700,0.06200,-0.04400,-0.01800,-0.02600,-0.05800,-0.03000,-0.00900,-0.04400,-0.05900
-0.04800,-0.03300,0.01500,0.04000,-0.03200,-0.00900,-0.02400,-0.05700,-0.03000,-0.00600,-0.03900,-0.06100
-0.03800,-0.02800,0.01000,0.03300,-0.02400,-0.00800,-0.02700,-0.05500,-0.02500,-0.00800,-0.03800,-0.05900
-0.02700,-0.02300,0.00400,0.02500,-0.01500,-0.00900,-0.03000,-0.05400,-0.02500,-0.01600,-0.03100,-0.05600
-0.01900,-0.02200,-0.00300,0.02100,-0.00800,-0.01200,-0.03000,-0.05700,-0.01800,-0.01000,-0.03300,-0.05400
-0.02900,-0.03700,-0.00700,0.03300,-0.01100,-0.02200,-0.02600,-0.06400,-0.02400,-0.00400,-0.05300,-0.05700
-0.02000,-0.02300,-0.00300,0.02200,-0.00900,-0.01300,-0.01400,-0.05500,-0.02600,0.00200,-0.05100,-0.06400
-0.01100,-0.01000,0.00100,0.01100,-0.00600,-0.00500,-0.00700,-0.04500,-0.01500,0.00600,-0.04300,-0.06000
-0.03800,0.00000,0.03900,0.01900,-0.03800,0.01900,0.01000,-0.03600,0.00400,0.01900,-0.04000,-0.05200
-0.03800,0.00900,0.04800,0.01400,-0.04300,0.02800,0.02100,-0.03400,0.01600,0.03100,-0.03400,-0.04800
-0.00400,0.02100,0.02500,-0.00900,-0.01500,0.02300,0.01800,-0.03500,0.01200,0.03000,-0.02800,-0.03700
-0.02200,0.01900,0.04100,0.00100,-0.03200,0.03000,0.00800,-0.03300,0.00900,0.02900,-0.02200,-0.04000
-0.03000,0.00800,0.03700,0.01100,-0.03400,0.02200,-0.02800,-0.04200,0.00500,0.02500,-0.01800,-0.03300
0.01200,0.03400,0.02200,-0.02400,-0.00500,0.02800,-0.05000,-0.04400,0.00100,0.02500,-0.01000,-0.01800
0.03600,0.03100,-0.00500,-0.03300,0.02000,0.01300,-0.04600,-0.05400,-0.00500,0.02400,-0.00700,-0.02100
0.02700,0.02400,-0.00300,-0.02500,0.01500,0.01000,-0.04600,-0.06600,-0.00800,0.02900,0.00100,-0.01800
0.02300,0.01900,-0.00400,-0.02100,0.01300,0.00800,-0.05000,-0.06600,-0.01800,0.02200,0.00100,-0.02200
0.01600,-0.01200,-0.02800,-0.00200,0.02200,-0.02000,-0.05000,-0.06400,-0.02300,0.01200,-0.00600,-0.02100
-0.01200,-0.02700,-0.01600,0.02000,0.00200,-0.02100,-0.04300,-0.07100,-0.03700,-0.00400,-0.02900,-0.03500
-0.03300,-0.06500,-0.03100,0.04900,-0.00100,-0.04800,-0.04400,-0.08200,-0.04500,-0.00900,-0.03900,-0.04700
-0.04200,-0.08300,-0.04100,0.06300,0.00000,-0.06200,-0.03500,-0.07800,-0.04500,-0.02800,-0.05600,-0.06200
-0.04900,-0.07600,-0.02700,0.06300,-0.01100,-0.05100,-0.03600,-0.08700,-0.05400,-0.03200,-0.06200,-0.07700
-0.06300,-0.09300,-0.03000,0.07800,-0.01600,-0.06200,-0.03600,-0.08200,-0.05300,-0.02900,-0.06500,-0.07800
-0.07500,-0.09000,-0.01500,0.08200,-0.03000,-0.05200,-0.03200,-0.08800,-0.06000,-0.03200,-0.06900,-0.07100
-0.06600,-0.08700,-0.02100,0.07700,-0.02300,-0.05300,-0.04100,-0.07500,-0.04600,-0.01300,-0.05600,-0.06100
-0.08400,-0.09900,-0.01400,0.09200,-0.03500,-0.05600,-0.01900,-0.08400,-0.06800,-0.03800,-0.08300,-0.09000
-0.07100,-0.05400,0.01700,0.06200,-0.04400,-0.01900,-0.00500,-0.03600,0.01500,0.04700,-0.02600,-0.06200
0.00600,0.00300,-0.00300,-0.00500,0.00500,0.00000,0.09100,0.23000,0.29300,0.27500,0.09400,0.00700
0.43800,0.24000,-0.19800,-0.33900,0.31800,0.02100,-0.07900,0.50100,0.93100,0.97600,0.78000,0.44900
0.98000,0.40200,-0.57800,-0.69100,0.77800,-0.08800,-0.65700,0.07000,0.72700,0.86500,1.13200,0.80700
0.71500,0.05200,-0.66300,-0.38300,0.68900,-0.30500,-1.09500,-1.14300,-0.88600,-0.65200,0.26900,0.41700
0.22000,-0.18300,-0.40300,-0.01900,0.31200,-0.29200,-1.00600,-1.38700,-1.31400,-1.06000,-0.17500,0.13100
0.07400,-0.06000,-0.13300,-0.00700,0.10400,-0.09600,-0.51900,-0.68600,-0.64100,-0.53700,-0.12300,0.09200
-0.04000,-0.01800,0.02100,0.02900,-0.03000,0.00200,-0.20800,-0.35700,-0.34500,-0.29500,-0.13700,-0.01800
-0.08600,-0.06200,0.02400,0.07400,-0.05500,-0.01900,-0.07700,-0.16200,-0.14300,-0.12600,-0.10300,-0.06800
-0.10400,-0.07900,0.02500,0.09100,-0.06400,-0.02700,-0.00600,-0.08300,-0.08900,-0.08900,-0.12100,-0.09200
-0.10500,-0.08000,0.02500,0.09200,-0.06500,-0.02700,0.01100,-0.07500,-0.06100,-0.05300,-0.10100,-0.09400
-0.09300,-0.07500,0.01800,0.08400,-0.05500,-0.02800,0.03000,-0.04600,-0.04200,-0.04900,-0.10600,-0.09600
-0.09300,-0.07100,0.02200,0.08200,-0.05800,-0.02400,0.02600,-0.05000,-0.04000,-0.04500,-0.09800,-0.09500
-0.08000,-0.06700,0.01400,0.07300,-0.04700,-0.02600,0.04200,-0.03400,-0.02300,-0.03300,-0.09400,-0.09400
-0.07300,-0.06000,0.01300,0.06600,-0.04300,-0.02300,0.03900,-0.03600,-0.02800,-0.03300,-0.09700,-0.09600
-0.08800,-0.06500,0.02300,0.07700,-0.05600,-0.02100,0.03900,-0.02500,-0.01600,-0.02000,-0.09100,-0.09200
-0.09300,-0.06000,0.03200,0.07600,-0.06200,-0.01400,0.04300,-0.02400,-0.01800,-0.02200,-0.09100,-0.09000
-0.09300,-0.07800,0.01500,0.08500,-0.05400,-0.03100,0.05000,-0.01700,-0.00900,-0.01900,-0.08900,-0.09000
-0.12500,-0.09700,0.02700,0.11100,-0.07600,-0.03500,0.05000,-0.01300,-0.00700,-0.02100,-0.09300,-0.08700
-0.13300,-0.08700,0.04600,0.11000,-0.09000,-0.02000,0.05000,-0.00800,-0.00300,-0.02000,-0.08900,-0.08400
-0.12000,-0.08500,0.03500,0.10200,-0.07700,-0.02500,0.04700,-0.00400,0.00100,-0.02000,-0.09100,-0.08700
-0.10900,-0.08000,0.02900,0.09400,-0.06900,-0.02600,0.04500,0.00200,0.00300,-0.01700,-0.10100,-0.09500
-0.09800,-0.07500,0.02300,0.08600,-0.06000,-0.02600,0.05400,0.01000,0.01000,-0.01100,-0.09600,-0.09300
-0.08200,-0.07200,0.01000,0.07700,-0.04600,-0.03000,0.05200,0.00800,0.00900,-0.00700,-0.09400,-0.08900
-0.08600,-0.06400,0.02200,0.07500,-0.05400,-0.02100,0.06500,0.02600,0.02100,-0.00200,-0.08500,-0.08600
-0.10700,-0.05700,0.05000,0.08200,-0.07800,-0.00300,0.07600,0.04000,0.03300,0.00300,-0.09000,-0.08100
-0.10300,-0.05200,0.05200,0.07700,-0.07700,0.00000,0.08600,0.05700,0.04400,0.00700,-0.10500,-0.07900
-0.09000,-0.04200,0.04700,0.06600,-0.06800,0.00200,0.09600,0.08500,0.06300,0.01500,-0.09200,-0.08200
-0.09800,-0.04300,0.05400,0.07000,-0.07600,0.00500,0.11400,0.11300,0.08800,0.03500,-0.09100,-0.08800
-0.09400,-0.03100,0.06200,0.06200,-0.07800,0.01500,0.14300,0.15400,0.11900,0.05900,-0.08400,-0.08100
-0.09800,-0.01500,0.08400,0.05600,-0.09000,0.03400,0.16300,0.19900,0.15500,0.08300,-0.06700,-0.06800
-0.10000,0.00100,0.10100,0.04900,-0.10100,0.05100,0.18700,0.24000,0.19400,0.11700,-0.06000,-0.06000
-0.06800,0.05300,0.12100,0.00700,-0.09500,0.08700,0.20800,0.28100,0.23300,0.14100,-0.03300,-0.03200
-0.06300,0.08200,0.14500,-0.01000,-0.10400,0.11300,0.21200,0.31300,0.26700,0.16900,-0.01000,-0.01100
-0.03800,0.09700,0.13500,-0.03000,-0.08700,0.11600,0.19800,0.30600,0.26800,0.18700,-0.00500,0.00000
-0.01900,0.11200,0.13100,-0.04700,-0.07500,0.12200,0.18400,0.29100,0.25100,0.17400,0.00400,0.02300
-0.02500,0.11500,0.14000,-0.04600,-0.08300,0.12700,0.15500,0.26900,0.23400,0.16700,0.02600,0.04400
-0.00100,0.10500,0.10600,-0.05300,-0.05400,0.10600,0.11600,0.21100,0.20100,0.14500,0.04600,0.04900
0.01200,0.06900,0.05600,-0.04100,-0.02200,0.06200,0.07500,0.15100,0.16700,0.10700,0.03400,0.03900
0.00000,0.04700,0.04700,-0.02400,-0.02400,0.04700,0.04200,0.10400,0.12400,0.08200,0.01900,0.03600
-0.02100,0.02300,0.04400,-0.00200,-0.03200,0.03300,0.03100,0.05000,0.07600,0.06300,0.01100,0.01900
-0.02600,-0.01000,0.01600,0.01800,-0.02100,0.00300,0.01300,0.01500,0.04100,0.04100,0.00100,0.00400
-0.03600,-0.02000,0.01700,0.02800,-0.02600,-0.00100,0.00100,-0.02000,0.01400,0.01700,-0.00600,-0.00100
-0.05800,-0.02900,0.02900,0.04300,-0.04300,0.00000,-0.00200,-0.04100,-0.00900,0.00000,-0.02400,-0.01100
-0.05500,-0.03500,0.02000,0.04500,-0.03700,-0.00700,-0.00800,-0.04800,-0.02700,-0.00700,-0.03700,-0.01700
-0.06600,-0.05200,0.01400,0.05900,-0.04000,-0.01900,-0.01400,-0.06700,-0.03200,-0.01400,-0.03500,-0.02400
-0.06500,-0.05800,0.00600,0.06100,-0.03500,-0.02600,-0.01900,-0.07100,-0.04500,-0.02200,-0.04400,-0.02800
-0.03900,-0.04200,-0.00200,0.04100,-0.01800,-0.02100,-0.02300,-0.07900,-0.05500,-0.03000,-0.06000,-0.03500
-0.06200,-0.06100,0.00100,0.06200,-0.03100,-0.03000,-0.02500,-0.08100,-0.04900,-0.03600,-0.05900,-0.03500
-0.07200,-0.07100,0.00100,0.07100,-0.03600,-0.03500,-0.02000,-0.07900,-0.05500,-0.04000,-0.06300,-0.03600
-0.06400,-0.06400,0.00000,0.06400,-0.03100,-0.03200,-0.01500,-0.08600,-0.06500,-0.04400,-0.06500,-0.04100
-0.06100,-0.06000,0.00100,0.06000,-0.03100,-0.02900,-0.01200,-0.08100,-0.06300,-0.04500,-0.06700,-0.04000
-0.07600,-0.06600,0.01000,0.07100,-0.04300,-0.02800,-0.00600,-0.07600,-0.05900,-0.05200,-0.07100,-0.04000
-0.10500,-0.08100,0.02500,0.09200,-0.06500,-0.02800,-0.00700,-0.07300,-0.05600,-0.05300,-0.06800,-0.04000
-0.09800,-0.07300,0.02500,0.08500,-0.06100,-0.02400,-0.00600,-0.06700,-0.05100,-0.04200,-0.06600,-0.04000
-0.09400,-0.06900,0.02500,0.08100,-0.06000,-0.02100,0.00000,-0.06400,-0.04900,-0.03500,-0.06200,-0.04000
-0.08600,-0.06300,0.02300,0.07400,-0.05400,-0.02000,0.00400,-0.05900,-0.04300,-0.02700,-0.06000,-0.04000
-0.08300,-0.05700,0.02600,0.06900,-0.05400,-0.01500,0.00900,-0.05600,-0.03600,-0.02100,-0.05700,-0.04000
-0.08500,-0.05500,0.02900,0.07000,-0.05600,-0.01300,0.01300,-0.05300,-0.03200,-0.01500,-0.05500,-0.04000
-0.07400,-0.05500,0.02000,0.06400,-0.04600,-0.01700,0.01800,-0.04800,-0.02700,-0.01000,-0.05400,-0.04000
-0.09100,-0.05500,0.03600,0.07300,-0.06300,-0.00900,0.02000,-0.04500,-0.02400,-0.00500,-0.05700,-0.04000
-0.11100,-0.05500,0.05600,0.08300,-0.08300,0.00000,0.01500,-0.04500,-0.02100,0.00200,-0.06500,-0.04000
-0.11000,-0.05400,0.05600,0.08200,-0.08300,0.00100,0.01000,-0.04600,-0.01600,0.00400,-0.06600,-0.04000
-0.10800,-0.05900,0.05000,0.08300,-0.07800,-0.00400,0.00600,-0.04400,-0.01600,-0.00200,-0.06400,-0.04000
-0.10700,-0.06600,0.04100,0.08600,-0.07400,-0.01200,0.00100,-0.04600,-0.02600,-0.00800,-0.06100,-0.04000
-0.09900,-0.06400,0.03500,0.08100,-0.06700,-0.01400,-0.00400,-0.05300,-0.02900,-0.01200,-0.05800,-0.04000
-0.08500,-0.06000,0.02500,0.07200,-0.05500,-0.01700,-0.00400,-0.05700,-0.03300,-0.01900,-0.06200,-0.04000
-0.08800,-0.05800,0.03000,0.07300,-0.05900,-0.01300,0.00500,-0.05900,-0.03700,-0.02400,-0.06400,-0.04000
-0.09500,-0.05400,0.04100,0.07500,-0.06800,-0.00600,0.00900,-0.06200,-0.03500,-0.02800,-0.06600,-0.04000
-0.09500,-0.05600,0.04000,0.07600,-0.06700,-0.00800,0.00500,-0.06900,-0.05200,-0.04000,-0.07900,-0.04700
-0.10400,-0.06400,0.04000,0.08400,-0.07200,-0.01200,0.00100,-0.07100,-0.06200,-0.04600,-0.08100,-0.05100
-0.10500,-0.06500,0.04000,0.08500,-0.07200,-0.01200,-0.00500,-0.06900,-0.05900,-0.04500,-0.07900,-0.05000
-0.10500,-0.06500,0.04000,0.08500,-0.07200,-0.01200,0.00000,-0.07600,-0.06100,-0.04500,-0.08000,-0.05000
-0.09800,-0.06100,0.03700,0.07900,-0.06700,-0.01200,-0.00600,-0.08100,-0.05900,-0.04500,-0.08000,-0.05000
-0.09400,-0.06000,0.03400,0.07700,-0.06400,-0.01300,-0.01400,-0.07700,-0.06100,-0.04900,-0.07900,-0.04900
-0.09000,-0.05900,0.03100,0.07500,-0.06000,-0.01400,-0.01400,-0.07500,-0.06400,-0.05000,-0.07600,-0.04600
-0.08000,-0.05100,0.02800,0.06500,-0.05400,-0.01100,-0.02600,-0.07200,-0.06500,-0.04900,-0.07300,-0.04500
-0.08900,-0.06400,0.02500,0.07600,-0.05700,-0.01900,-0.02500,-0.06900,-0.06500,-0.05300,-0.07000,-0.04500
-0.08700,-0.06200,0.02500,0.07400,-0.05600,-0.01900,-0.02400,-0.08000,-0.06300,-0.05500,-0.06800,-0.04500
-0.08400,-0.04400,0.04000,0.06400,-0.06200,-0.00200,-0.02100,-0.07800,-0.05900,-0.05500,-0.06300,-0.04400
-0.10300,-0.05700,0.04600,0.08000,-0.07400,-0.00500,-0.01900,-0.08000,-0.06100,-0.05500,-0.07300,-0.05000
-0.12100,-0.07600,0.04500,0.09800,-0.08200,-0.01500,-0.02300,-0.09100,-0.05900,-0.05100,-0.08700,-0.05600
-0.11600,-0.07200,0.04400,0.09300,-0.08000,-0.01400,-0.01900,-0.09000,-0.06100,-0.05000,-0.08400,-0.05500
-0.10700,-0.06700,0.04000,0.08700,-0.07300,-0.01300,-0.03100,-0.08800,-0.06900,-0.05000,-0.08500,-0.05300
-0.10400,-0.06400,0.03900,0.08400,-0.07100,-0.01200,-0.03600,-0.08500,-0.07000,-0.04900,-0.08500,-0.05000
-0.10600,-0.06300,0.04400,0.08400,-0.07500,-0.00900,-0.02800,-0.08500,-0.07000,-0.05100,-0.08500,-0.04900
-0.10200,-0.05700,0.04500,0.07900,-0.07400,-0.00500,-0.02800,-0.08300,-0.06600,-0.04700,-0.08200,-0.04900
-0.11300,-0.06800,0.04500,0.09000,-0.07900,-0.01100,-0.02100,-0.08000,-0.06500,-0.04500,-0.08000,-0.05400
-0.12700,-0.08400,0.04300,0.10500,-0.08500,-0.02000,-0.02100,-0.07600,-0.06500,-0.04500,-0.08000,-0.05600
-0.11800,-0.08000,0.03800,0.09900,-0.07800,-0.02100,-0.02500,-0.07500,-0.05900,-0.04200,-0.07700,-0.05400
-0.11300,-0.07100,0.04200,0.09200,-0.07700,-0.01400,-0.02200,-0.06900,-0.05300,-0.03900,-0.07400,-0.05100
-0.10100,-0.07000,0.03100,0.08500,-0.06600,-0.01900,-0.01700,-0.07300,-0.04800,-0.04200,-0.07700,-0.05000
-0.08500,-0.05700,0.02800,0.07100,-0.05600,-0.01400,-0.01400,-0.07700,-0.04200,-0.04700,-0.08400,-0.04900
-0.07300,-0.03200,0.04200,0.05200,-0.05700,0.00500,-0.00800,-0.06000,-0.03800,-0.03300,-0.08000,-0.04500
-0.08300,-0.02300,0.06000,0.05300,-0.07100,0.01800,-0.00200,-0.06600,-0.04400,-0.02500,-0.07500,-0.04300
-0.09100,-0.01700,0.07400,0.05400,-0.08200,0.02800,0.00300,-0.07200,-0.04200,-0.03100,-0.06900,-0.04000
-0.08500,-0.02100,0.06400,0.05300,-0.07400,0.02100,0.01100,-0.06700,-0.03500,-0.02900,-0.06300,-0.03700
-0.07900,-0.02100,0.05700,0.05000,-0.06800,0.01800,-0.00200,-0.07200,-0.03300,-0.03100,-0.05900,-0.03500
-0.07000,-0.01800,0.05100,0.04400,-0.06000,0.01600,-0.03200,-0.06800,-0.02700,-0.02900,-0.05400,-0.03200
-0.04300,0.00100,0.04400,0.02100,-0.04400,0.02200,-0.04400,-0.07100,-0.02500,-0.03200,-0.05600,-0.02900
-0.03100,0.00900,0.04000,0.01100,-0.03600,0.02400,-0.04900,-0.07400,-0.04300,-0.02500,-0.05200,-0.02900
-0.04100,-0.00800,0.03300,0.02400,-0.03700,0.01200,-0.05000,-0.07300,-0.04800,-0.01600,-0.05000,-0.02200
-0.04800,-0.01800,0.03000,0.03300,-0.03800,0.00500,-0.05400,-0.09600,-0.04900,-0.03300,-0.05000,-0.03200
-0.06800,-0.04300,0.02600,0.05500,-0.04700,-0.00800,-0.05400,-0.10100,-0.06900,-0.04800,-0.06200,-0.04900
-0.07800,-0.05600,0.02200,0.06600,-0.05000,-0.01600,-0.04700,-0.10000,-0.07900,-0.05900,-0.07500,-0.05500
-0.09200,-0.07300,0.02000,0.08200,-0.05500,-0.02600,-0.04800,-0.10000,-0.07100,-0.05900,-0.07900,-0.06600
-0.10400,-0.09100,0.01300,0.09700,-0.05800,-0.03900,-0.03900,-0.09800,-0.07900,-0.06900,-0.09900,-0.08000
-0.09500,-0.08100,0.01400,0.08700,-0.05400,-0.03300,-0.04200,-0.10400,-0.07900,-0.06600,-0.08800,-0.07900
-0.10400,-0.08600,0.01800,0.09500,-0.06000,-0.03400,-0.03200,-0.10000,-0.08500,-0.07900,-0.10300,-0.09800
-0.10100,-0.07800,0.02300,0.08900,-0.06200,-0.02800,-0.03500,-0.10000,-0.07200,-0.05800,-0.08700,-0.09100
-0.09100,-0.07900,0.01200,0.08400,-0.05100,-0.03300,-0.02900,-0.08300,-0.06600,-0.06100,-0.10500,-0.10200
-0.11800,-0.09500,0.02300,0.10600,-0.07000,-0.03600,-0.01600,-0.09500,-0.06700,-0.05200,-0.10200,-0.10700
-0.12200,-0.03600,0.08600,0.07900,-0.10400,0.02500,0.02400,0.01500,0.04300,0.04600,-0.04100,-0.05800
0.05900,0.05100,-0.00800,-0.05500,0.03300,0.02200,0.09800,0.32600,0.43200,0.39200,0.19800,0.07500
0.68000,0.28900,-0.39100,-0.48400,0.53500,-0.05100,-0.23000,0.46100,0.97800,0.99100,0.91800,0.57200
0.99200,0.27600,-0.71500,-0.63400,0.85300,-0.21900,-0.83900,-0.36400,0.13000,0.25500,0.76100,0.64800
0.47500,-0.10500,-0.58000,-0.18400,0.52800,-0.34300,-1.13100,-1.43300,-1.29500,-1.01500,-0.08900,0.18600
0.10300,-0.15200,-0.25500,0.02500,0.17900,-0.20300,-0.84700,-1.17700,-1.10500,-0.87900,-0.20600,0.07500
0.00800,-0.04300,-0.05100,0.01800,0.03000,-0.04700,-0.37900,-0.54900,-0.53200,-0.44600,-0.16100,0.01700
-0.10700,-0.06000,0.04700,0.08400,-0.07700,-0.00600,-0.14900,-0.30400,-0.29400,-0.24100,-0.15500,-0.07600
-0.12600,-0.07600,0.05000,0.10100,-0.08800,-0.01300,-0.02600,-0.11600,-0.12200,-0.11500,-0.12500,-0.09900
-0.12900,-0.08000,0.05000,0.10400,-0.08900,-0.01500,0.00500,-0.09200,-0.10600,-0.09500,-0.12900,-0.12700
-0.13400,-0.08600,0.04800,0.11000,-0.09100,-0.01800,0.02600,-0.06600,-0.05500,-0.06300,-0.11800,-0.12500
-0.13500,-0.09200,0.04300,0.11300,-0.08900,-0.02400,0.03800,-0.05300,-0.04800,-0.05900,-0.12700,-0.13300
-0.13000,-0.08400,0.04600,0.10700,-0.08700,-0.01900,0.03800,-0.04200,-0.03800,-0.04000,-0.11200,-0.12800
-0.13300,-0.08400,0.04900,0.10800,-0.09100,-0.01700,0.05500,-0.03100,-0.03600,-0.04300,-0.11500,-0.13100
-0.13600,-0.07700,0.05800,0.10600,-0.09700,-0.00900,0.04700,-0.03400,-0.03600,-0.03700,-0.10600,-0.13200
-0.14600,-0.09400,0.05200,0.11900,-0.09900,-0.02100,0.05100,-0.02500,-0.02900,-0.03300,-0.10600,-0.13600
-0.15700,-0.10300,0.05300,0.13000,-0.10500,-0.02500,0.04400,-0.02500,-0.03200,-0.03100,-0.11200,-0.13300
-0.13400,-0.08800,0.04600,0.11100,-0.09000,-0.02100,0.04500,-0.01900,-0.02300,-0.03200,-0.11400,-0.13000
-0.13200,-0.08100,0.05100,0.10600,-0.09200,-0.01500,0.04800,-0.01600,-0.01900,-0.03300,-0.11900,-0.12800
-0.14900,-0.07000,0.07800,0.10900,-0.11300,0.00400,0.05000,-0.00600,-0.01000,-0.02900,-0.12000,-0.12300
-0.13800,-0.07600,0.06200,0.10700,-0.10000,-0.00700,0.05900,-0.00200,-0.00500,-0.03100,-0.12000,-0.13200
-0.14200,-0.09400,0.04800,0.11800,-0.09500,-0.02300,0.06000,0.00800,0.00400,-0.03000,-0.11900,-0.13000
-0.15400,-0.10200,0.05200,0.12800,-0.10300,-0.02500,0.07200,0.00600,-0.00100,-0.03100,-0.12300,-0.13700
-0.14300,-0.09600,0.04800,0.11900,-0.09500,-0.02400,0.07600,0.00500,-0.00500,-0.02900,-0.12500,-0.14700
-0.14300,-0.08900,0.05300,0.11600,-0.09800,-0.01800,0.07600,0.02900,0.01000,-0.02000,-0.11900,-0.13800
-0.13600,-0.08200,0.05400,0.10900,-0.09500,-0.01400,0.08100,0.04300,0.01700,-0.00900,-0.11300,-0.13500
-0.13300,-0.07600,0.05700,0.10400,-0.09500,-0.00900,0.09500,0.06800,0.03800,0.00000,-0.10800,-0.13100
-0.13000,-0.06900,0.06100,0.09900,-0.09500,-0.00400,0.11200,0.09100,0.05700,0.01300,-0.10100,-0.12300
-0.10500,-0.04200,0.06300,0.07300,-0.08400,0.01000,0.12000,0.11400,0.07600,0.02700,-0.10200,-0.12800
-0.11700,-0.03500,0.08200,0.07600,-0.09900,0.02300,0.15200,0.16400,0.11600,0.04900,-0.09800,-0.12200
-0.12200,-0.03500,0.08700,0.07900,-0.10400,0.02600,0.17700,0.20300,0.15000,0.07200,-0.07700,-0.10200
-0.12100,-0.00700,0.11500,0.06400,-0.11800,0.05400,0.19300,0.24100,0.18800,0.10200,-0.05800,-0.09500
-0.10600,0.02700,0.13300,0.03900,-0.12000,0.08000,0.21200,0.28300,0.22100,0.13400,-0.04500,-0.06800
-0.05100,0.06400,0.11500,-0.00700,-0.08300,0.08900,0.20800,0.30100,0.24100,0.14500,-0.03100,-0.04900
-0.03700,0.09300,0.13000,-0.02800,-0.08400,0.11100,0.19600,0.29400,0.24200,0.14900,-0.01400,-0.03400
-0.02400,0.11000,0.13400,-0.04300,-0.07900,0.12200,0.17800,0.28300,0.23000,0.15400,-0.00200,-0.00600
-0.01000,0.09600,0.10600,-0.04300,-0.05800,0.10100,0.15100,0.24900,0.21200,0.14300,0.00600,-0.00900
-0.00100,0.07400,0.07400,-0.03700,-0.03800,0.07400,0.10400,0.19300,0.17700,0.12200,0.01600,-0.02000
-0.00700,0.06400,0.07100,-0.02900,-0.03900,0.06700,0.07000,0.13900,0.14000,0.10100,0.01700,-0.02700
-0.01500,0.02800,0.04300,-0.00700,-0.02900,0.03500,0.06400,0.08600,0.10000,0.07700,0.00400,-0.03700
-0.02500,0.00000,0.02600,0.01200,-0.02600,0.01300,0.05000,0.04800,0.06000,0.05700,-0.00600,-0.05000
-0.06000,-0.01200,0.04800,0.03500,-0.05400,0.01800,0.03200,0.01700,0.03900,0.03900,-0.01900,-0.05600
-0.07600,-0.03800,0.03800,0.05700,-0.05700,0.00000,0.02100,-0.00800,0.01500,0.01700,-0.03600,-0.06500
-0.09100,-0.05700,0.03500,0.07400,-0.06300,-0.01100,0.01700,-0.03100,-0.01300,0.00100,-0.04100,-0.07900
-0.08500,-0.05400,0.03100,0.06900,-0.05800,-0.01100,0.01500,-0.05000,-0.02700,-0.00500,-0.05400,-0.08100
-0.08400,-0.05800,0.02500,0.07100,-0.05400,-0.01600,0.01000,-0.05400,-0.03400,-0.00900,-0.06200,-0.07700
-0.09300,-0.07000,0.02400,0.08100,-0.05900,-0.02300,0.00700,-0.06300,-0.04100,-0.01700,-0.05800,-0.07500
-0.08800,-0.07000,0.01800,0.07900,-0.05300,-0.02600,0.00400,-0.07100,-0.04500,-0.02000,-0.06200,-0.07100
-0.08700,-0.07000,0.01600,0.07800,-0.05200,-0.02700,0.00500,-0.07000,-0.04500,-0.02900,-0.06500,-0.06900
-0.08000,-0.06900,0.01100,0.07400,-0.04600,-0.02900,0.00900,-0.06900,-0.05000,-0.03800,-0.06700,-0.07900
-0.08000,-0.07400,0.00600,0.07700,-0.04300,-0.03400,0.00000,-0.07400,-0.04900,-0.04200,-0.07700,-0.09300
-0.08500,-0.08100,0.00500,0.08300,-0.04500,-0.03800,0.00200,-0.07300,-0.04300,-0.04600,-0.08000,-0.09500
-0.07600,-0.07500,0.00100,0.07500,-0.03800,-0.03700,0.02100,-0.05900,-0.03900,-0.04200,-0.07300,-0.09000
-0.08000,-0.07000,0.01000,0.07500,-0.04500,-0.03000,0.02000,-0.05000,-0.03500,-0.04100,-0.07000,-0.08800
-0.09500,-0.06700,0.02800,0.08000,-0.06100,-0.01900,0.02200,-0.04000,-0.02600,-0.02900,-0.06500,-0.08300
-0.07000,-0.06000,0.01000,0.06500,-0.04000,-0.02500,0.03100,-0.03000,-0.01400,-0.00200,-0.05900,-0.08100
-0.06000,-0.05900,0.00000,0.06000,-0.03000,-0.02900,0.03200,-0.02500,0.00000,0.01400,-0.06600,-0.08100
-0.10400,-0.07200,0.03300,0.08800,-0.06800,-0.01900,0.03800,-0.02600,0.00600,0.02000,-0.07100,-0.08600
-0.10700,-0.06800,0.03900,0.08700,-0.07300,-0.01400,0.04100,-0.02300,0.01000,0.02200,-0.06600,-0.09000
-0.08200,-0.05600,0.02700,0.06900,-0.05400,-0.01400,0.04800,-0.01900,0.01800,0.02100,-0.06300,-0.08300
-0.07600,-0.05100,0.02500,0.06400,-0.05000,-0.01300,0.04800,-0.02100,0.01400,0.02000,-0.06000,-0.08000
-0.05000,-0.03600,0.01400,0.04300,-0.03100,-0.01100,0.04000,-0.01600,0.01200,0.02000,-0.05500,-0.07500
-0.05700,-0.04400,0.01300,0.05100,-0.03500,-0.01500,0.03700,-0.01500,0.00900,0.01500,-0.05300,-0.07100
-0.08300,-0.06200,0.02100,0.07200,-0.05200,-0.02000,0.02900,-0.00900,0.00600,0.01500,-0.04900,-0.06900
-0.09000,-0.06000,0.03000,0.07400,-0.06000,-0.01400,0.02500,-0.01400,0.00300,0.01500,-0.05200,-0.07200
-0.08500,-0.05900,0.02700,0.07200,-0.05600,-0.01600,0.02800,-0.03400,0.00600,0.01700,-0.06500,-0.08800
-0.08500,-0.05500,0.03000,0.07000,-0.05700,-0.01200,0.03000,-0.03500,0.01100,0.02100,-0.06500,-0.09100
-0.07800,-0.05500,0.02300,0.06600,-0.05000,-0.01600,0.02500,-0.03500,0.00400,0.01800,-0.06100,-0.09000
-0.05600,-0.05300,0.00300,0.05500,-0.03000,-0.02400,0.02300,-0.03500,0.00100,0.01500,-0.05800,-0.09000
-0.07800,-0.04900,0.02900,0.06300,-0.05300,-0.01000,0.01800,-0.03500,-0.00400,0.01200,-0.05500,-0.09000
-0.07200,-0.05000,0.02100,0.06100,-0.04700,-0.01400,0.01400,-0.04000,-0.00900,0.01000,-0.05500,-0.09500
-0.06700,-0.04700,0.02000,0.05600,-0.04300,-0.01300,0.01900,-0.04000,-0.01100,0.00800,-0.05500,-0.09200
-0.08900,-0.04400,0.04600,0.06600,-0.06700,0.00100,0.02000,-0.04000,-0.01100,0.00500,-0.06300,-0.08600
-0.08000,-0.04800,0.03200,0.06400,-0.05500,-0.00700,0.02000,-0.04000,-0.01000,0.00200,-0.06300,-0.08100
-0.08300,-0.05800,0.02500,0.07000,-0.05300,-0.01700,0.01700,-0.04000,-0.01000,-0.00100,-0.05300,-0.07400
-0.08700,-0.07000,0.01600,0.07800,-0.05100,-0.02700,0.01500,-0.04000,-0.00500,-0.00400,-0.04900,-0.07100
-0.07800,-0.07600,0.00200,0.07700,-0.04000,-0.03700,0.01400,-0.04500,-0.00500,-0.00500,-0.04000,-0.08100
-0.05500,-0.06600,-0.01100,0.06000,-0.02200,-0.03800,0.01800,-0.04100,-0.00300,0.01100,-0.03600,-0.07600
-0.04300,-0.05300,-0.01000,0.04800,-0.01600,-0.03200,0.02600,-0.03600,-0.00100,0.01700,-0.05100,-0.07000
-0.04900,-0.05500,-0.00600,0.05200,-0.02100,-0.03000,0.02300,-0.05100,-0.01100,0.01100,-0.05500,-0.08700
-0.05600,-0.06100,-0.00500,0.05900,-0.02600,-0.03200,0.02000,-0.05600,-0.01300,0.00900,-0.04900,-0.09000
-0.05800,-0.05800,0.00000,0.05800,-0.02900,-0.02900,0.01800,-0.04900,-0.00900,0.00400,-0.04500,-0.08300
-0.05400,-0.05400,0.00000,0.05400,-0.02600,-0.02700,0.01400,-0.04600,-0.01100,0.00100,-0.05200,-0.07900
-0.07000,-0.05300,0.01700,0.06100,-0.04300,-0.01700,0.01500,-0.04200,-0.00900,-0.00300,-0.06700,-0.07300
-0.08000,-0.04800,0.03200,0.06400,-0.05600,-0.00800,0.01800,-0.03500,-0.01100,-0.00900,-0.06300,-0.06600
-0.07100,-0.04800,0.02300,0.06000,-0.04700,-0.01200,0.02100,-0.04000,-0.00900,-0.00600,-0.05900,-0.06700
-0.05200,-0.04100,0.01100,0.04600,-0.03100,-0.01500,0.01900,-0.04600,-0.00500,-0.00100,-0.05700,-0.07400
-0.04800,-0.04200,0.00600,0.04500,-0.02700,-0.01800,0.02000,-0.04000,-0.00500,0.00100,-0.05000,-0.06800
-0.05700,-0.06400,-0.00700,0.06000,-0.02500,-0.03500,0.02000,-0.03600,-0.00100,0.00600,-0.05300,-0.06000
-0.05100,-0.05400,-0.00300,0.05200,-0.02300,-0.02900,0.01900,-0.03200,-0.00100,0.00800,-0.05800,-0.05500
-0.05800,-0.03500,0.02300,0.04600,-0.04000,-0.00600,0.03500,-0.02700,0.01000,0.01700,-0.04700,-0.04600
-0.05100,-0.02200,0.02800,0.03600,-0.03900,0.00300,0.05700,-0.02500,0.02800,0.02900,-0.03400,-0.04700
-0.04400,-0.02200,0.02200,0.03200,-0.03300,0.00100,0.06800,-0.02500,0.03400,0.03700,-0.03000,-0.05900
-0.04300,-0.02200,0.02100,0.03200,-0.03200,0.00000,0.06100,-0.02200,0.03600,0.04700,-0.02500,-0.05300
-0.02900,-0.01400,0.01500,0.02100,-0.02200,0.00000,0.04200,-0.01800,0.03100,0.04500,-0.02300,-0.04500
-0.00900,0.00500,0.01400,0.00200,-0.01100,0.00900,0.02900,-0.02100,0.02800,0.04500,-0.01800,-0.04000
0.03400,0.04100,0.00600,-0.03700,0.01400,0.02300,0.01600,-0.03200,0.02300,0.05200,-0.01400,-0.03300
0.03500,0.03500,0.00000,-0.03500,0.01700,0.01700,0.00600,-0.03700,0.02000,0.04900,-0.01300,-0.03200
0.00300,0.02700,0.02400,-0.01500,-0.01100,0.02500,-0.00300,-0.03400,0.01700,0.03700,-0.00700,-0.02500
-0.00700,0.00700,0.01400,-0.00100,-0.01000,0.01100,-0.00800,-0.03800,0.00800,0.02300,-0.01400,-0.02600
-0.00300,-0.01100,-0.00800,0.00800,0.00200,-0.00900,-0.00800,-0.03800,0.00400,0.01800,-0.00500,-0.01600
-0.02600,-0.03100,-0.00500,0.02900,-0.01000,-0.01800,-0.00300,-0.04100,-0.00600,0.00700,-0.02000,-0.02500
-0.04400,-0.06200,-0.01700,0.05300,-0.01300,-0.03900,-0.00200,-0.06100,-0.01000,0.00500,-0.04600,-0.05400
-0.04400,-0.06600,-0.02300,0.05500,-0.01000,-0.04400,0.00100,-0.05900,-0.01600,-0.00500,-0.05200,-0.06200
-0.06100,-0.09300,-0.03200,0.07700,-0.01400,-0.06200,0.00600,-0.05600,-0.00600,-0.01200,-0.06100,-0.06500
-0.06500,-0.10500,-0.04000,0.08600,-0.01200,-0.07200,0.00200,-0.05400,-0.01100,-0.01200,-0.07000,-0.07200
-0.06400,-0.09300,-0.02900,0.07900,-0.01700,-0.06100,0.00900,-0.04900,-0.03200,-0.01000,-0.08000,-0.08200
-0.06100,-0.08600,-0.02400,0.07400,-0.01800,-0.05500,0.00400,-0.05000,-0.01400,0.01200,-0.06500,-0.07000
-0.06200,-0.08600,-0.02400,0.07400,-0.01900,-0.05500,0.02700,-0.03800,-0.02300,-0.00500,-0.09300,-0.07500
-0.04700,-0.02900,0.01800,0.03800,-0.03200,-0.00500,0.03200,-0.01500,0.03700,0.05600,-0.04100,-0.05000
-0.02700,-0.00600,0.02100,0.01700,-0.02400,0.00700,0.10700,0.19300,0.25100,0.22100,0.04500,-0.01200
0.35700,0.16300,-0.19300,-0.26000,0.27500,-0.01500,0.04000,0.54000,0.86500,0.85600,0.65800,0.37800
0.92300,0.39500,-0.52800,-0.65900,0.72500,-0.06600,-0.48100,0.18000,0.81200,0.93300,1.16300,0.83600
0.69200,0.16200,-0.53000,-0.42700,0.61100,-0.18400,-0.95300,-0.99600,-0.66700,-0.39300,0.42500,0.54800
0.17000,-0.08300,-0.25300,-0.04300,0.21200,-0.16800,-0.95400,-1.39100,-1.29500,-1.00500,-0.14400,0.19800
0.03300,-0.04300,-0.07600,0.00500,0.05500,-0.05900,-0.55700,-0.79100,-0.72700,-0.59900,-0.13700,0.11600
-0.04600,-0.00300,0.04200,0.02400,-0.04400,0.02000,-0.19400,-0.35800,-0.34000,-0.28800,-0.14000,-0.00400
-0.09300,-0.03100,0.06200,0.06200,-0.07700,0.01500,-0.03900,-0.14700,-0.11600,-0.10700,-0.11200,-0.06300
-0.08300,-0.06600,0.01800,0.07400,-0.05100,-0.02400,0.02700,-0.05900,-0.04900,-0.05600,-0.12300,-0.08000
-0.07300,-0.05400,0.01900,0.06300,-0.04600,-0.01700,0.04200,-0.03900,-0.01500,-0.02200,-0.10500,-0.07200
-0.10300,-0.07000,0.03300,0.08600,-0.06800,-0.01900,0.07000,-0.00100,0.01900,-0.03000,-0.10400,-0.09300
-0.09800,-0.07400,0.02400,0.08500,-0.06000,-0.02500,0.06700,0.00000,0.02600,-0.01500,-0.09700,-0.09500
-0.06200,-0.06400,-0.00200,0.06300,-0.03000,-0.03300,0.05900,0.00700,0.03900,0.00400,-0.08600,-0.08700
-0.07700,-0.06200,0.01500,0.06900,-0.04500,-0.02400,0.07200,0.01200,0.03200,-0.00100,-0.08900,-0.08800
-0.07800,-0.05400,0.02400,0.06600,-0.05100,-0.01400,0.08100,0.02200,0.03700,-0.00100,-0.10200,-0.07900
-0.06300,-0.05200,0.01200,0.05700,-0.03700,-0.02000,0.08000,0.02000,0.03500,-0.00400,-0.10200,-0.08000
-0.07600,-0.05400,0.02300,0.06500,-0.05000,-0.01500,0.08000,0.01800,0.03400,0.01500,-0.09000,-0.07400
-0.10900,-0.07200,0.03700,0.09000,-0.07200,-0.01800,0.07900,0.02600,0.04100,0.01500,-0.08800,-0.07300
-0.10800,-0.07600,0.03200,0.09200,-0.07000,-0.02200,0.09200,0.02900,0.03500,0.01400,-0.07600,-0.06900
-0.09600,-0.06600,0.02900,0.08100,-0.06200,-0.01800,0.10800,0.03600,0.02600,0.01300,-0.08100,-0.06700
-0.09000,-0.06300,0.02700,0.07600,-0.05800,-0.01800,0.10400,0.04600,0.04300,0.00900,-0.09600,-0.06400
-0.08100,-0.05600,0.02400,0.06800,-0.05200,-0.01600,0.10600,0.04300,0.04300,0.00900,-0.09500,-0.06300
-0.07200,-0.04900,0.02300,0.06000,-0.04700,-0.01300,0.10500,0.05200,0.04900,0.01600,-0.09500,-0.07800
-0.09600,-0.07000,0.02600,0.08300,-0.06100,-0.02200,0.10500,0.06200,0.06100,0.02400,-0.09500,-0.08000
-0.10500,-0.08100,0.02300,0.09200,-0.06400,-0.02900,0.10600,0.07200,0.06800,0.03100,-0.09500,-0.07300
-0.09900,-0.06400,0.03500,0.08100,-0.06600,-0.01400,0.10400,0.09000,0.08000,0.03200,-0.09200,-0.06900
-0.10000,-0.05400,0.04600,0.07700,-0.07200,-0.00400,0.12400,0.11400,0.09000,0.04400,-0.08400,-0.06400
-0.06900,-0.04000,0.02900,0.05400,-0.04900,-0.00500,0.13300,0.14100,0.11400,0.05500,-0.07600,-0.06000
-0.06600,-0.02400,0.04200,0.04500,-0.05400,0.00900,0.14200,0.16500,0.13800,0.06900,-0.06700,-0.05500
-0.07800,-0.01400,0.06400,0.04600,-0.07100,0.02500,0.17100,0.20900,0.17300,0.10500,-0.06100,-0.05200
-0.05300,0.01200,0.06500,0.02100,-0.05900,0.03800,0.19000,0.25000,0.21200,0.12700,-0.04800,-0.04300
-0.02600,0.04500,0.07100,-0.01000,-0.04900,0.05800,0.20200,0.28600,0.24800,0.15700,-0.02700,-0.01500
-0.02000,0.07900,0.09900,-0.03000,-0.05900,0.08900,0.19600,0.32100,0.27800,0.18000,-0.01100,0.01400
-0.00700,0.10500,0.11200,-0.04900,-0.06000,0.10800,0.18300,0.32300,0.28700,0.19200,0.00100,0.02500
0.01200,0.11900,0.10700,-0.06600,-0.04800,0.11300,0.17400,0.31200,0.28000,0.19700,0.02800,0.04400
0.03200,0.14600,0.11300,-0.08900,-0.04100,0.12900,0.15800,0.29700,0.27100,0.18400,0.05800,0.07200
0.04400,0.13400,0.09000,-0.08900,-0.02300,0.11200,0.13800,0.25300,0.24700,0.17300,0.05400,0.06900
0.04700,0.10700,0.06000,-0.07700,-0.00700,0.08300,0.11100,0.19900,0.20400,0.15800,0.04100,0.05600
0.02800,0.08600,0.05900,-0.05700,-0.01600,0.07200,0.08700,0.15100,0.16500,0.13800,0.03100,0.04600
0.00500,0.05300,0.04800,-0.02900,-0.02200,0.05000,0.07100,0.10100,0.12700,0.11000,0.02000,0.03500
0.01500,0.05000,0.03500,-0.03300,-0.01000,0.04200,0.05800,0.06400,0.09800,0.08700,0.01600,0.03000
0.00900,0.03900,0.03000,-0.02400,-0.01100,0.03400,0.04900,0.04200,0.06700,0.07200,0.00900,0.02400
-0.00600,0.02100,0.02800,-0.00800,-0.01700,0.02400,0.04500,0.02400,0.04300,0.05700,0.00400,0.01900
-0.01200,0.01300,0.02500,-0.00100,-0.01900,0.01900,0.04000,0.01200,0.03300,0.04800,-0.00200,0.01400
-0.01800,0.00300,0.02100,0.00800,-0.02000,0.01200,0.03700,-0.00400,0.02000,0.03800,-0.02800,0.00600
-0.03000,-0.01000,0.02000,0.02000,-0.02400,0.00500,0.03100,-0.01200,0.01000,0.02700,-0.04200,0.00000
-0.03700,-0.02100,0.01600,0.02800,-0.02600,-0.00200,0.03000,-0.01000,0.00400,0.01900,-0.04000,-0.00800
-0.03800,-0.02000,0.01800,0.02900,-0.02800,-0.00100,0.03000,-0.01900,-0.00100,0.01400,-0.03900,-0.01500
-0.04600,-0.01900,0.02700,0.03200,-0.03700,0.00300,0.03000,-0.02000,-0.00600,0.00900,-0.04200,-0.02300
-0.04300,-0.02000,0.02300,0.03100,-0.03300,0.00100,0.03000,-0.01500,-0.01000,0.00300,-0.04300,-0.02800
-0.04800,-0.02800,0.02000,0.03800,-0.03400,-0.00400,0.02900,-0.01300,-0.01500,-0.00400,-0.04600,-0.03000
-0.04600,-0.02700,0.01900,0.03600,-0.03200,-0.00400,0.03100,-0.00800,-0.01100,0.00100,-0.05300,-0.03400
-0.03300,-0.02100,0.01200,0.02600,-0.02200,-0.00400,0.02800,-0.00500,-0.00200,0.01100,-0.04500,-0.02800
-0.03500,-0.01400,0.02000,0.02400,-0.02700,0.00300,0.03600,-0.00100,0.00600,0.01300,-0.03600,-0.02100
-0.03300,-0.01200,0.02100,0.02200,-0.02700,0.00400,0.05000,0.01000,0.01400,0.02000,-0.03000,-0.01400
-0.04500,-0.00600,0.03900,0.02500,-0.04200,0.01600,0.05000,0.01700,0.02000,0.03000,-0.02200,-0.00800
-0.05700,0.00500,0.06200,0.02500,-0.06000,0.03300,0.05000,0.02700,0.02700,0.04000,-0.01800,-0.00300
-0.05400,-0.00300,0.05100,0.02800,-0.05200,0.02300,0.05000,0.03900,0.02400,0.04900,-0.01200,-0.00400
-0.05100,-0.00300,0.04800,0.02700,-0.04900,0.02200,0.05000,0.04000,0.03200,0.04900,-0.01000,-0.01100
-0.04000,0.00100,0.04100,0.01900,-0.04100,0.02100,0.04800,0.04000,0.03400,0.04500,-0.00200,-0.00700
-0.03300,0.00200,0.03500,0.01500,-0.03500,0.01800,0.04400,0.03800,0.02500,0.04200,-0.00200,-0.00200
-0.03500,0.01300,0.04800,0.01100,-0.04100,0.03000,0.04600,0.04200,0.04100,0.04000,-0.01900,-0.00100
-0.03500,0.01200,0.04700,0.01200,-0.04100,0.02900,0.04100,0.04400,0.04300,0.03600,-0.02000,-0.01400
-0.03800,0.00400,0.04200,0.01700,-0.04000,0.02300,0.04000,0.03800,0.03300,0.03500,-0.01500,-0.01800
-0.03800,-0.00300,0.03500,0.02000,-0.03600,0.01600,0.04000,0.03500,0.02800,0.03700,-0.01500,-0.01400
-0.04000,-0.00900,0.03100,0.02400,-0.03500,0.01100,0.03500,0.02800,0.02000,0.03300,-0.00800,-0.01600
-0.03900,-0.01500,0.02400,0.02700,-0.03100,0.00400,0.03000,0.02000,0.01500,0.02700,-0.01500,-0.01400
-0.04800,-0.02800,0.02000,0.03700,-0.03300,-0.00400,0.02500,0.01200,0.01000,0.02300,-0.03000,-0.01700
-0.06000,-0.03100,0.02900,0.04500,-0.04500,-0.00100,0.02200,0.00400,0.00800,0.01600,-0.03100,-0.01200
-0.05300,-0.03000,0.02300,0.04100,-0.03800,-0.00300,0.01600,-0.00400,0.00300,0.01100,-0.02900,-0.01500
-0.04900,-0.03000,0.01900,0.03900,-0.03400,-0.00500,0.01800,-0.01400,0.00200,0.01500,-0.02600,-0.02400
-0.04000,-0.03000,0.01000,0.03500,-0.02500,-0.01000,0.02100,-0.00500,-0.00700,0.01400,-0.02400,-0.02500
-0.04800,-0.02900,0.01900,0.03800,-0.03300,-0.00500,0.02000,-0.00200,-0.02500,0.01000,-0.02600,-0.03500
-0.06600,-0.02400,0.04200,0.04500,-0.05400,0.00800,0.01800,-0.01800,-0.02500,0.00700,-0.02900,-0.03500
-0.06200,-0.02600,0.03600,0.04300,-0.04900,0.00500,0.01400,-0.02100,-0.02500,0.00200,-0.02900,-0.03400
-0.05500,-0.02200,0.03300,0.03800,-0.04400,0.00500,0.01500,-0.01500,-0.02600,-0.00100,-0.02100,-0.03600
-0.05000,-0.02000,0.03100,0.03500,-0.04000,0.00500,0.01100,-0.01500,-0.02400,-0.00100,-0.01900,-0.03500
-0.04300,-0.01900,0.02400,0.03100,-0.03400,0.00200,0.01000,-0.01000,-0.02800,0.00200,-0.01300,-0.03300
-0.04600,-0.02100,0.02500,0.03300,-0.03500,0.00100,0.00900,-0.01100,-0.03000,0.00000,-0.01000,-0.02900
-0.05300,-0.02500,0.02800,0.03900,-0.04100,0.00100,0.00600,-0.02200,-0.03100,0.00000,-0.02600,-0.03100
-0.04200,-0.01800,0.02400,0.03000,-0.03300,0.00300,0.00400,-0.02600,-0.02800,0.00000,-0.03100,-0.02900
-0.03300,-0.01500,0.01800,0.02400,-0.02500,0.00100,0.00900,-0.02300,-0.02500,0.00000,-0.03000,-0.03100
-0.02300,-0.01000,0.01300,0.01600,-0.01800,0.00100,0.01600,-0.02000,-0.02400,0.01000,-0.03300,-0.03900
-0.01200,-0.00500,0.00700,0.00800,-0.00900,0.00100,0.01500,-0.02000,-0.02800,0.01100,-0.02800,-0.04100
-0.02800,-0.02000,0.00800,0.02400,-0.01800,-0.00600,0.01400,-0.01900,-0.03500,0.01000,-0.02500,-0.04000
-0.04800,-0.02400,0.02500,0.03600,-0.03600,0.00000,0.01100,-0.02100,-0.03400,0.00900,-0.02200,-0.03700
-0.04600,-0.01400,0.03100,0.03000,-0.03800,0.00800,0.00900,-0.01800,-0.03000,0.00500,-0.01700,-0.03500
-0.04100,-0.01300,0.02900,0.02700,-0.03500,0.00800,0.01200,-0.02000,-0.02700,0.00500,-0.01500,-0.03500
-0.03500,-0.00300,0.03200,0.01900,-0.03300,0.01400,0.01400,-0.02000,-0.02200,0.00700,-0.00900,-0.03000
-0.02900,-0.00300,0.02700,0.01600,-0.02800,0.01200,0.02300,-0.00800,-0.02000,0.01600,-0.00400,-0.02700
-0.03900,-0.00900,0.03000,0.02400,-0.03500,0.01000,0.04500,-0.01000,-0.01500,0.02900,0.00100,-0.02400
-0.00800,0.01800,0.02600,-0.00500,-0.01700,0.02100,0.05000,-0.00900,-0.01000,0.03900,0.00700,-0.02000
0.00100,0.03800,0.03600,-0.02000,-0.01800,0.03700,0.04100,-0.00500,-0.00500,0.04000,0.01300,-0.01600
-0.01100,0.04000,0.05100,-0.01500,-0.03200,0.04600,0.03900,-0.00200,-0.00100,0.04100,0.01800,-0.01200
0.01200,0.04700,0.03500,-0.03000,-0.01200,0.04100,0.02200,0.00100,0.00400,0.03800,0.02000,-0.00300
0.01300,0.04200,0.02900,-0.02800,-0.00900,0.03600,-0.00600,-0.00200,0.00400,0.03200,0.02900,0.00800
0.02500,0.04000,0.01500,-0.03200,0.00500,0.02700,-0.01200,-0.01300,-0.00500,0.02300,0.03000,0.01600
0.03600,0.05700,0.02100,-0.04600,0.00700,0.03900,-0.00800,-0.02100,-0.00900,0.01900,0.02800,0.02900
0.01800,0.05100,0.03300,-0.03400,-0.00800,0.04200,-0.01600,-0.02300,-0.02000,0.00900,0.02300,0.03100
0.04800,0.03400,-0.01400,-0.04100,0.03100,0.01000,-0.02700,-0.04200,-0.02200,0.00700,0.02200,0.02400
0.05500,0.02100,-0.03400,-0.03700,0.04400,-0.00600,-0.01800,-0.04600,-0.03300,0.01600,0.01800,0.01400
-0.00700,-0.02000,-0.01300,0.01300,0.00400,-0.01600,-0.00200,-0.04500,-0.03800,0.01000,0.01000,0.00600
-0.02100,-0.04600,-0.02500,0.03400,0.00300,-0.03500,0.00400,-0.04500,-0.04100,-0.00300,-0.01000,-0.00100
-0.06000,-0.06400,-0.00400,0.06200,-0.02800,-0.03400,-0.00600,-0.04600,-0.05900,-0.01700,-0.02400,-0.01200
-0.07600,-0.06800,0.00800,0.07200,-0.04100,-0.03000,-0.01300,-0.04500,-0.05000,-0.02400,-0.01600,-0.01400
-0.04300,-0.06500,-0.02200,0.05400,-0.01000,-0.04400,0.00400,-0.04500,-0.07300,-0.03900,-0.04200,-0.03400
-0.03000,-0.05600,-0.02500,0.04300,-0.00200,-0.04000,-0.00300,-0.04600,-0.04900,-0.00200,-0.02300,-0.02100
-0.03200,-0.05800,-0.02600,0.04500,-0.00300,-0.04100,0.01600,-0.04200,-0.05600,-0.02700,-0.04900,-0.02300
-0.04200,-0.03400,0.00800,0.03800,-0.02400,-0.01300,0.01900,-0.02700,-0.03400,0.01800,-0.01200,-0.01400
-0.01900,0.00200,0.02100,0.00800,-0.02100,0.01100,0.08400,0.15700,0.15100,0.16600,0.05800,0.01300
0.26000,0.14600,-0.11500,-0.20200,0.18700,0.01500,0.07900,0.49100,0.69600,0.71700,0.52000,0.29600
0.88000,0.43000,-0.45000,-0.65500,0.66500,-0.01000,-0.39300,0.38400,0.98500,1.10800,1.20100,0.82600
0.90600,0.25400,-0.65300,-0.58000,0.77900,-0.19900,-0.93700,-0.70700,-0.33800,-0.11500,0.65700,0.66300
0.36400,-0.09300,-0.45600,-0.13500,0.41000,-0.27400,-1.05300,-1.42900,-1.37200,-1.07100,-0.08500,0.23100
0.09200,-0.08200,-0.17400,-0.00500,0.13400,-0.12800,-0.67400,-0.90100,-0.87700,-0.69300,-0.09800,0.15300
-0.03900,-0.06000,-0.02100,0.05000,-0.00900,-0.04000,-0.25700,-0.40100,-0.43500,-0.35600,-0.09500,0.04900
-0.10000,-0.06200,0.03800,0.08100,-0.06900,-0.01200,-0.08500,-0.18300,-0.20400,-0.14800,-0.07000,-0.01500
-0.09000,-0.05400,0.03600,0.07200,-0.06300,-0.00900,0.01400,-0.05100,-0.09400,-0.07300,-0.07100,-0.05000
-0.08300,-0.05500,0.02800,0.06900,-0.05500,-0.01300,0.03700,-0.03700,-0.07500,-0.05100,-0.06300,-0.05800
-0.07200,-0.04700,0.02400,0.05900,-0.04800,-0.01100,0.04800,-0.00200,-0.04700,-0.02900,-0.05300,-0.05200
-0.07900,-0.06100,0.01800,0.07000,-0.04800,-0.02100,0.06100,-0.00600,-0.05700,-0.03500,-0.05300,-0.06400
-0.08000,-0.06500,0.01600,0.07200,-0.04800,-0.02400,0.06500,0.00600,-0.03700,-0.01700,-0.04700,-0.05200
-0.07600,-0.06200,0.01400,0.06800,-0.04500,-0.02400,0.06600,0.01000,-0.03900,-0.02000,-0.05100,-0.05300
-0.08200,-0.05900,0.02400,0.07000,-0.05300,-0.01700,0.06300,0.01300,-0.02700,-0.00800,-0.04300,-0.04500
-0.06800,-0.05400,0.01400,0.06100,-0.04000,-0.02000,0.07700,0.02700,-0.02400,-0.00600,-0.04600,-0.04100
-0.05700,-0.05100,0.00600,0.05400,-0.03100,-0.02300,0.08600,0.02900,-0.01900,0.00000,-0.04400,-0.04200
-0.07500,-0.04700,0.02800,0.06100,-0.05100,-0.00900,0.08500,0.03300,-0.01200,0.00400,-0.05400,-0.04100
-0.07500,-0.04600,0.02900,0.06100,-0.05200,-0.00800,0.08500,0.03600,-0.00700,0.00900,-0.05500,-0.04000
-0.07800,-0.05500,0.02300,0.06600,-0.05000,-0.01600,0.08500,0.03400,-0.01000,0.00900,-0.05000,-0.04000
-0.07700,-0.05500,0.02200,0.06600,-0.04900,-0.01600,0.08500,0.03700,-0.01500,0.00300,-0.05000,-0.04000
-0.06600,-0.05100,0.01500,0.05800,-0.04000,-0.01700,0.08500,0.04200,-0.00600,0.00000,-0.04400,-0.04000
-0.06600,-0.04900,0.01800,0.05700,-0.04200,-0.01500,0.08500,0.05100,-0.00400,-0.00400,-0.04800,-0.03800
-0.08700,-0.04500,0.04200,0.06600,-0.06400,-0.00200,0.09000,0.06200,0.00500,-0.00800,-0.05100,-0.03300
-0.10100,-0.04400,0.05800,0.07200,-0.07900,0.00700,0.09100,0.06800,0.00700,-0.01000,-0.05000,-0.02700
-0.09000,-0.03700,0.05300,0.06300,-0.07200,0.00800,0.10300,0.08700,0.02200,-0.00100,-0.04900,-0.02400
-0.08400,-0.02800,0.05600,0.05600,-0.07000,0.01400,0.11300,0.11100,0.04000,0.01100,-0.04400,-0.01800
-0.08600,-0.02400,0.06200,0.05500,-0.07400,0.01900,0.12700,0.13400,0.05200,0.02800,-0.04600,-0.01500
-0.07900,-0.01100,0.06800,0.04500,-0.07300,0.02800,0.14700,0.16700,0.08800,0.04800,-0.04100,-0.02100
-0.07100,0.00000,0.07100,0.03500,-0.07100,0.03500,0.17000,0.21000,0.12000,0.07900,-0.02300,-0.00900
-0.06600,0.02200,0.08800,0.02200,-0.07700,0.05400,0.19800,0.25800,0.16100,0.10800,-0.00200,0.01400
-0.04000,0.07200,0.11200,-0.01600,-0.07600,0.09200,0.21500,0.29700,0.20100,0.13800,0.01400,0.02900
-0.01200,0.10100,0.11300,-0.04500,-0.06300,0.10600,0.23000,0.33400,0.23400,0.17200,0.03100,0.04600
-0.00800,0.11300,0.12000,-0.05300,-0.06400,0.11600,0.23100,0.35100,0.25100,0.18400,0.05600,0.07300
0.00800,0.14100,0.13300,-0.07400,-0.06300,0.13700,0.21900,0.33600,0.24400,0.17600,0.07100,0.09300
0.03400,0.15600,0.12200,-0.09600,-0.04400,0.13900,0.20300,0.31900,0.23700,0.16300,0.08200,0.09900
0.03300,0.13600,0.10300,-0.08500,-0.03500,0.12000,0.16000,0.27500,0.19900,0.15200,0.09300,0.10800
0.03900,0.11100,0.07200,-0.07600,-0.01700,0.09200,0.11700,0.21200,0.15400,0.13400,0.09300,0.10900
0.05000,0.08000,0.03000,-0.06600,0.01000,0.05500,0.09300,0.15600,0.11700,0.11000,0.08100,0.09500
0.03900,0.06100,0.02100,-0.05000,0.00900,0.04100,0.07300,0.10900,0.07500,0.08700,0.06700,0.08400
0.03300,0.05800,0.02500,-0.04500,0.00400,0.04100,0.05800,0.07100,0.03600,0.06300,0.05400,0.07200
0.02800,0.04300,0.01500,-0.03600,0.00600,0.02900,0.04500,0.03200,0.00400,0.04200,0.03900,0.05900
0.02000,0.02300,0.00200,-0.02200,0.00900,0.01200,0.04000,0.00900,-0.01800,0.02200,0.02800,0.05500
0.00400,-0.00600,-0.01000,0.00200,0.00700,-0.00800,0.03500,-0.00400,-0.04200,0.00700,0.01600,0.05500
-0.02200,-0.01200,0.00900,0.01700,-0.01500,-0.00100,0.02900,-0.01300,-0.05300,0.00100,0.00500,0.05500
-0.00800,-0.01800,-0.01000,0.01300,0.00100,-0.01400,0.02400,-0.02900,-0.06300,-0.00600,0.00400,0.05500
0.00100,-0.02000,-0.02100,0.01000,0.01200,-0.02100,0.01800,-0.03100,-0.06500,-0.01400,0.01400,0.05500
-0.01900,-0.01100,0.00700,0.01500,-0.01300,-0.00200,0.01500,-0.02600,-0.06700,-0.02000,0.01800,0.05800
-0.01600,-0.01400,0.00200,0.01400,-0.00900,-0.00600,0.01200,-0.04400,-0.08100,-0.02600,0.01500,0.06100
0.00000,-0.00200,-0.00200,0.00200,0.00100,-0.00200,0.01000,-0.04300,-0.07600,-0.02900,0.01100,0.06000
-0.00200,-0.01300,-0.01100,0.00800,0.00500,-0.01200,0.00700,-0.03600,-0.07100,-0.02400,0.00700,0.05800
-0.01900,-0.01500,0.00400,0.01700,-0.01200,-0.00500,0.00300,-0.03500,-0.06800,-0.01900,0.00400,0.05500
-0.03000,-0.01700,0.01300,0.02300,-0.02100,-0.00200,0.02000,-0.02500,-0.06200,-0.01300,-0.00100,0.05400
-0.01900,-0.01800,0.00000,0.01800,-0.00900,-0.00800,0.03200,-0.01500,-0.05900,-0.00700,0.00700,0.06400
0.00200,0.01400,0.01200,-0.00800,-0.00600,0.01300,0.02800,-0.00500,-0.05300,-0.00100,0.00900,0.07000
0.00200,0.00400,0.00200,-0.00300,0.00000,0.00300,0.03600,0.00200,-0.04600,0.00900,0.01100,0.07200
-0.00700,-0.00200,0.00500,0.00500,-0.00600,0.00100,0.04100,0.00900,-0.03900,0.02000,0.03000,0.06600
-0.01700,0.00800,0.02600,0.00400,-0.02200,0.01700,0.04000,0.01200,-0.03200,0.02700,0.03000,0.07200
-0.01600,0.02000,0.03600,-0.00200,-0.02600,0.02700,0.04000,0.01500,-0.02600,0.03100,0.02900,0.08700
-0.00500,0.03600,0.04200,-0.01600,-0.02400,0.03900,0.04000,0.02000,-0.02400,0.03900,0.03100,0.08400
-0.00800,0.02800,0.03600,-0.01000,-0.02200,0.03200,0.04100,0.01900,-0.02600,0.03900,0.02700,0.08500
-0.01000,0.02400,0.03400,-0.00700,-0.02300,0.02900,0.03700,0.01500,-0.02400,0.03400,0.02500,0.08500
-0.01300,0.01800,0.03100,-0.00300,-0.02200,0.02400,0.03400,0.01200,-0.02900,0.03200,0.02400,0.08500
-0.01800,0.01100,0.02900,0.00400,-0.02400,0.01900,0.02900,0.00700,-0.04000,0.02700,0.02600,0.08300
-0.01500,0.01200,0.02700,0.00100,-0.02100,0.01900,0.02800,0.00400,-0.03900,0.02500,0.02400,0.07900
-0.00900,0.01400,0.02200,-0.00300,-0.01600,0.01800,0.02100,0.00100,-0.04600,0.01900,0.02600,0.08000
-0.01200,0.00900,0.02100,0.00200,-0.01700,0.01500,0.02100,-0.00200,-0.05200,0.01300,0.02900,0.07600
-0.01800,-0.00200,0.01600,0.00900,-0.01700,0.00700,0.02400,-0.00400,-0.04600,0.00900,0.02800,0.07500
-0.01500,0.00100,0.01600,0.00600,-0.01500,0.00900,0.01500,-0.00800,-0.05600,0.00300,0.02400,0.07500
0.00200,0.01200,0.01000,-0.00700,-0.00500,0.01100,0.02500,-0.00900,-0.06600,-0.00300,0.02100,0.08300
-0.00500,-0.00400,0.00100,0.00400,-0.00300,-0.00100,0.03100,-0.01600,-0.06500,-0.00300,0.01800,0.08500
-0.03300,-0.01900,0.01400,0.02600,-0.02300,-0.00300,0.02300,-0.02100,-0.06500,0.00600,0.01300,0.07900
-0.04900,-0.01100,0.03800,0.03000,-0.04300,0.01300,0.02300,-0.02000,-0.06100,0.01300,0.02600,0.07700
-0.05000,-0.00800,0.04200,0.02900,-0.04500,0.01700,0.01600,-0.01900,-0.06000,0.01000,0.03500,0.07200
-0.01400,0.00700,0.02100,0.00300,-0.01700,0.01400,0.01600,-0.02300,-0.06000,0.01000,0.02600,0.07000
-0.00500,0.00700,0.01100,-0.00100,-0.00800,0.00800,0.01900,-0.03100,-0.06000,0.00900,0.02300,0.07500
-0.00600,-0.00300,0.00300,0.00400,-0.00400,0.00000,0.02000,-0.02600,-0.05900,0.00500,0.01600,0.07500
0.01400,0.01300,-0.00100,-0.01300,0.00800,0.00600,0.02000,-0.02100,-0.06400,0.00500,0.01000,0.07500
0.01700,0.00600,-0.01100,-0.01100,0.01400,-0.00200,0.02100,-0.01800,-0.07100,0.00700,0.01800,0.07400
0.02600,0.01600,-0.01000,-0.02100,0.01800,0.00300,0.01700,-0.01200,-0.07000,0.01300,0.01100,0.07600
0.00100,0.02900,0.02700,-0.01500,-0.01400,0.02800,0.01500,-0.01100,-0.06800,0.01600,0.02100,0.08000
-0.00100,0.02000,0.02100,-0.00900,-0.01100,0.02000,0.01500,-0.01900,-0.06500,0.01500,0.03300,0.07700
0.02500,0.02000,-0.00500,-0.02200,0.01500,0.00700,0.01100,-0.02800,-0.06500,0.01200,0.02400,0.07300
0.01900,0.01400,-0.00500,-0.01600,0.01100,0.00400,0.00900,-0.02700,-0.06700,0.00900,0.02400,0.07000
0.00400,0.01100,0.00600,-0.00800,-0.00100,0.00800,0.01100,-0.02500,-0.07000,0.01100,0.01700,0.06500
-0.01500,0.00800,0.02200,0.00300,-0.01900,0.01500,0.01500,-0.02500,-0.06500,0.01500,0.01600,0.06300
-0.01200,0.00200,0.01500,0.00500,-0.01400,0.00800,0.01500,-0.02000,-0.06600,0.01500,0.01900,0.05900
-0.01200,-0.00200,0.01000,0.00600,-0.01100,0.00400,0.01500,-0.02000,-0.07400,0.01500,0.02100,0.06100
-0.00600,-0.00500,0.00100,0.00500,-0.00300,-0.00100,0.01400,-0.01900,-0.06500,0.01400,0.02700,0.06000
0.00700,0.00500,-0.00200,-0.00600,0.00500,0.00100,0.01900,-0.01300,-0.05500,0.01600,0.02900,0.06100
0.00700,0.03700,0.03000,-0.02200,-0.01200,0.03300,0.04100,-0.00800,-0.04600,0.03500,0.04000,0.07600
0.00500,0.03800,0.03300,-0.02200,-0.01400,0.03500,0.05400,-0.00200,-0.04500,0.04300,0.04800,0.08100
0.01100,0.03500,0.02400,-0.02300,-0.00600,0.02900,0.04900,0.00400,-0.04500,0.03800,0.05300,0.07900
0.03700,0.05500,0.01800,-0.04600,0.00900,0.03600,0.03200,0.01000,-0.04400,0.04800,0.05700,0.08000
0.03800,0.04900,0.01100,-0.04400,0.01300,0.03000,0.01700,0.00700,-0.04600,0.05600,0.05300,0.07900
0.03900,0.04300,0.00400,-0.04200,0.01700,0.02400,0.00900,-0.00100,-0.04300,0.05300,0.06100,0.08900
0.04100,0.03800,-0.00300,-0.03900,0.02200,0.01700,0.00300,-0.00700,-0.05200,0.04800,0.06400,0.09000
0.01800,0.03300,0.01500,-0.02600,0.00100,0.02400,-0.00500,-0.01500,-0.05300,0.04700,0.05900,0.08600
0.01900,0.02500,0.00600,-0.02300,0.00700,0.01500,-0.01200,-0.02000,-0.05800,0.04000,0.05300,0.08200
0.03800,0.01100,-0.02600,-0.02400,0.03200,-0.00800,-0.01900,-0.02900,-0.08000,0.03100,0.04800,0.07800
0.03300,-0.00800,-0.04100,-0.01200,0.03700,-0.02500,-0.01200,-0.03800,-0.08700,0.01700,0.04300,0.07500
0.01400,-0.02600,-0.03900,0.00600,0.02700,-0.03200,0.00300,-0.04200,-0.08100,0.00900,0.03600,0.06800
-0.00100,-0.04200,-0.04100,0.02100,0.02000,-0.04200,0.00600,-0.03700,-0.07900,0.00700,0.03100,0.05800
-0.02400,-0.06200,-0.03800,0.04300,0.00700,-0.05000,0.00700,-0.04100,-0.10500,-0.00300,0.01500,0.04300
-0.01200,-0.05500,-0.04300,0.03300,0.01600,-0.04800,0.00000,-0.03000,-0.10100,0.00200,0.01800,0.04900
-0.01500,-0.05200,-0.03600,0.03300,0.01100,-0.04400,0.00400,-0.03200,-0.10500,-0.01600,0.00700,0.04000
-0.01500,-0.05500,-0.04000,0.03500,0.01300,-0.04700,-0.00600,-0.04500,-0.09300,-0.00500,0.02400,0.05000
-0.04100,-0.07700,-0.03500,0.05900,-0.00300,-0.05600,0.01800,-0.02800,-0.09800,-0.02200,0.00000,0.04000
-0.05900,-0.04700,0.01200,0.05200,-0.03500,-0.01700,0.02900,-0.02600,-0.07300,0.02800,0.02000,0.04700
-0.01600,-0.00400,0.01300,0.01000,-0.01400,0.00400,0.08600,0.13100,0.07900,0.13900,0.07300,0.06900
0.21700,0.12200,-0.09500,-0.16900,0.15600,0.01400,0.11200,0.46700,0.57000,0.60700,0.44900,0.29300
0.88300,0.39100,-0.49200,-0.63600,0.68700,-0.05000,-0.32100,0.45800,0.94900,1.05600,1.10900,0.79400
1.01200,0.24700,-0.76600,-0.62900,0.88900,-0.25900,-0.92500,-0.59600,-0.26600,-0.03600,0.66900,0.67900
0.45300,-0.09300,-0.54700,-0.17900,0.50000,-0.32000,-1.09200,-1.45200,-1.42700,-1.05900,-0.07000,0.27500
0.16200,-0.06500,-0.22700,-0.04800,0.19500,-0.14600,-0.70200,-0.95300,-0.96300,-0.70900,-0.04900,0.23700
0.06500,0.01800,-0.04700,-0.04100,0.05500,-0.01400,-0.26900,-0.42400,-0.48800,-0.35100,-0.04400,0.13700
-0.00100,-0.00900,-0.00800,0.00500,0.00400,-0.00900,-0.08200,-0.20300,-0.26900,-0.15400,-0.05100,0.05800
-0.06600,-0.04500,0.02000,0.05500,-0.04300,-0.01200,0.01900,-0.05200,-0.13300,-0.06900,-0.03600,0.02800
-0.08400,-0.05000,0.03300,0.06700,-0.05900,-0.00900,0.04700,-0.03600,-0.11300,-0.04700,-0.03700,0.01200
-0.06600,-0.04500,0.02000,0.05500,-0.04300,-0.01200,0.07000,0.01200,-0.06500,-0.01000,-0.01900,0.02500
-0.08100,-0.06000,0.02200,0.07000,-0.05100,-0.01900,0.07500,0.01000,-0.07400,-0.01600,-0.02200,0.01600
-0.07000,-0.05600,0.01400,0.06300,-0.04200,-0.02100,0.07400,0.02400,-0.05800,0.00000,-0.01100,0.02200
-0.06000,-0.04900,0.01100,0.05400,-0.03500,-0.01900,0.08800,0.03900,-0.06100,-0.00600,-0.01400,0.01900
-0.04900,-0.04300,0.00600,0.04500,-0.02700,-0.01800,0.09500,0.04400,-0.05400,0.00600,-0.00800,0.02100
-0.05200,-0.03600,0.01600,0.04400,-0.03400,-0.01000,0.09600,0.04600,-0.04900,0.00900,-0.00500,0.01700
-0.04900,-0.02900,0.02000,0.03900,-0.03400,-0.00400,0.09400,0.04300,-0.04600,0.01200,-0.00700,0.01400
-0.05000,-0.03800,0.01300,0.04400,-0.03100,-0.01200,0.09600,0.04600,-0.03600,0.01700,0.00200,0.01100
-0.06000,-0.05100,0.00900,0.05600,-0.03400,-0.02100,0.09400,0.05300,-0.03200,0.01200,0.01100,0.00800
-0.05500,-0.03600,0.01900,0.04500,-0.03600,-0.00800,0.10000,0.06200,-0.02400,0.01100,0.00500,0.00500
-0.07400,-0.04600,0.02800,0.06000,-0.05100,-0.00900,0.10400,0.05900,-0.01800,0.00800,0.00300,0.00500
-0.07600,-0.06100,0.01500,0.06900,-0.04500,-0.02300,0.10600,0.06300,-0.01600,0.00300,-0.00200,0.00600
-0.05400,-0.05200,0.00200,0.05200,-0.02800,-0.02400,0.10400,0.06700,-0.01500,0.01000,-0.00500,-0.01200
-0.07600,-0.04700,0.02900,0.06100,-0.05200,-0.00900,0.10700,0.07800,-0.00700,0.02100,-0.00200,-0.01700
-0.09300,-0.03900,0.05400,0.06600,-0.07300,0.00800,0.12100,0.09100,0.00200,0.02800,0.00100,-0.01000
-0.08100,-0.03300,0.04800,0.05700,-0.06400,0.00700,0.13000,0.10900,0.01500,0.03600,0.00500,-0.01000
-0.07800,-0.02700,0.05100,0.05300,-0.06400,0.01200,0.15200,0.14100,0.02900,0.03900,0.00600,-0.00300
-0.06800,-0.01800,0.04900,0.04300,-0.05800,0.01500,0.16600,0.15500,0.04100,0.05300,0.01200,-0.00200
-0.06000,-0.01000,0.05000,0.03500,-0.05500,0.02000,0.17600,0.18500,0.06700,0.06900,0.00600,0.00400
-0.05300,0.00100,0.05400,0.02600,-0.05400,0.02700,0.20200,0.23200,0.10800,0.09400,0.01300,0.01600
-0.03700,0.03600,0.07300,0.00000,-0.05500,0.05400,0.22500,0.27500,0.15000,0.12400,0.03900,0.02400
-0.02300,0.07000,0.09300,-0.02400,-0.05800,0.08200,0.24200,0.31700,0.18800,0.15000,0.05200,0.03700
