I,II,III,aVR,aVL,aVF,V1,V2,V3,V4,V5,V6
-0.04500,-0.05500,-0.01000,0.05000,-0.01700,-0.03200,0.20000,0.56100,0.39300,0.14400,-0.07300,-0.08400
-0.04100,-0.04400,-0.00200,0.04300,-0.01900,-0.02300,0.20000,0.59800,0.44700,0.20200,-0.04400,-0.07400
-0.02400,-0.01100,0.01300,0.01700,-0.01800,0.00100,0.19300,0.66800,0.54400,0.30600,0.01700,-0.05000
-0.00500,0.01600,0.02100,-0.00600,-0.01400,0.01800,0.18500,0.71300,0.61300,0.39800,0.08300,-0.02000
0.00600,0.04700,0.04100,-0.02700,-0.01800,0.04400,0.17600,0.72300,0.62900,0.45900,0.13500,0.00700
0.01300,0.07700,0.06400,-0.04500,-0.02600,0.07000,0.17000,0.70000,0.60300,0.46500,0.15000,0.02300
0.01300,0.08400,0.07100,-0.04800,-0.03000,0.07700,0.15800,0.65600,0.54700,0.44000,0.13900,0.01800
-0.00200,0.08300,0.08500,-0.04100,-0.04300,0.08400,0.13800,0.59900,0.46200,0.37300,0.12900,0.00800
-0.00800,0.07300,0.08100,-0.03300,-0.04500,0.07700,0.10400,0.51200,0.34100,0.26400,0.07800,0.00200
-0.01100,0.05900,0.07000,-0.02400,-0.04100,0.06400,0.07300,0.42400,0.20400,0.13700,0.01400,-0.01200
-0.02600,0.03800,0.06400,-0.00600,-0.04500,0.05000,0.06700,0.36300,0.09300,0.01900,-0.04300,-0.03200
-0.04200,0.01000,0.05200,0.01600,-0.04700,0.03100,0.06200,0.30400,0.00800,-0.08000,-0.10000,-0.05200
-0.06300,-0.01700,0.04700,0.04000,-0.05500,0.01500,0.05800,0.27400,-0.05500,-0.16000,-0.14800,-0.07600
-0.06900,-0.02500,0.04400,0.04700,-0.05600,0.00900,0.05400,0.27100,-0.09600,-0.20400,-0.18300,-0.09200
-0.06500,-0.02400,0.04100,0.04500,-0.05300,0.00800,0.05000,0.26900,-0.11900,-0.22700,-0.20200,-0.10200
-0.07500,-0.03600,0.03900,0.05500,-0.05700,0.00100,0.05500,0.27100,-0.12700,-0.24300,-0.21000,-0.11000
-0.07500,-0.04100,0.03400,0.05700,-0.05500,-0.00300,0.05500,0.26900,-0.13200,-0.24600,-0.21400,-0.11500
-0.07600,-0.04000,0.03700,0.05800,-0.05700,-0.00100,0.05500,0.27000,-0.13500,-0.24400,-0.22300,-0.12400
-0.08500,-0.04000,0.04500,0.06200,-0.06500,0.00200,0.05500,0.27200,-0.13000,-0.24500,-0.22200,-0.12500
-0.08500,-0.04000,0.04500,0.06200,-0.06500,0.00200,0.05200,0.27500,-0.12200,-0.24500,-0.21900,-0.12500
-0.08500,-0.04000,0.04500,0.06200,-0.06500,0.00200,0.05000,0.28500,-0.11600,-0.24500,-0.22100,-0.12500
-0.08500,-0.04000,0.04500,0.06200,-0.06500,0.00200,0.05000,0.29400,-0.10900,-0.24200,-0.21900,-0.12500
-0.08500,-0.04000,0.04500,0.06200,-0.06500,0.00200,0.05000,0.30100,-0.10300,-0.23400,-0.22100,-0.12500
-0.08600,-0.04000,0.04600,0.06300,-0.06600,0.00300,0.05000,0.30700,-0.10000,-0.22800,-0.21900,-0.12100
-0.09000,-0.04000,0.05000,0.06500,-0.07000,0.00500,0.05000,0.31400,-0.09800,-0.22100,-0.21000,-0.11600
-0.09000,-0.04000,0.05000,0.06500,-0.07000,0.00500,0.04500,0.32500,-0.09500,-0.21500,-0.20000,-0.11100
-0.08800,-0.03700,0.05000,0.06200,-0.06900,0.00600,0.04500,0.32400,-0.09200,-0.21500,-0.19000,-0.10800
-0.08500,-0.03500,0.05000,0.06000,-0.06700,0.00700,0.04400,0.32000,-0.09000,-0.21300,-0.18800,-0.10200
-0.08500,-0.03500,0.05000,0.06000,-0.06700,0.00700,0.04000,0.31800,-0.09300,-0.21000,-0.19100,-0.10000
-0.08500,-0.03500,0.05100,0.06000,-0.06700,0.00800,0.04000,0.31500,-0.09700,-0.20900,-0.19000,-0.10000
-0.08500,-0.03600,0.04900,0.06000,-0.06600,0.00600,0.03800,0.31300,-0.10400,-0.21500,-0.19100,-0.10000
-0.08600,-0.03500,0.05200,0.06100,-0.06800,0.00800,0.03200,0.31100,-0.11800,-0.22300,-0.19600,-0.10600
-0.07300,-0.02500,0.04800,0.04800,-0.06000,0.01100,0.02800,0.30700,-0.11800,-0.23100,-0.19300,-0.10500
-0.07600,-0.00200,0.07400,0.03900,-0.07500,0.03500,0.02300,0.30600,-0.10900,-0.22700,-0.18500,-0.09900
-0.07800,0.02300,0.10200,0.02700,-0.09000,0.06200,0.01900,0.30100,-0.10300,-0.20200,-0.18000,-0.09500
-0.05000,0.06100,0.11100,-0.00600,-0.08000,0.08500,0.01400,0.30100,-0.09600,-0.19300,-0.17400,-0.09000
-0.05400,0.10600,0.16000,-0.02600,-0.10700,0.13300,-0.00200,0.28700,-0.09500,-0.18900,-0.17000,-0.08600
-0.04000,0.13900,0.17900,-0.05000,-0.11000,0.15900,-0.03300,0.25200,-0.08700,-0.17800,-0.16600,-0.08400
-0.00600,0.14000,0.14600,-0.06700,-0.07600,0.14300,-0.07800,0.23500,-0.12700,-0.20900,-0.16800,-0.08000
-0.01200,0.09000,0.10200,-0.03900,-0.05700,0.09600,-0.08600,0.21600,-0.18500,-0.24100,-0.17700,-0.07900
-0.00500,0.06200,0.06800,-0.02900,-0.03700,0.06500,-0.06200,0.20800,-0.17500,-0.22200,-0.16500,-0.07500
-0.02400,0.03300,0.05700,-0.00500,-0.04100,0.04500,-0.04000,0.20000,-0.18400,-0.23400,-0.17100,-0.07400
-0.06200,-0.01900,0.04400,0.04000,-0.05300,0.01200,-0.01700,0.20200,-0.18000,-0.25800,-0.20700,-0.09900
-0.08600,-0.06300,0.02300,0.07400,-0.05400,-0.02000,-0.00700,0.19300,-0.19200,-0.28800,-0.23800,-0.12400
-0.09900,-0.09500,0.00400,0.09700,-0.05100,-0.04500,0.00900,0.19200,-0.18500,-0.29300,-0.25000,-0.13700
-0.09000,-0.09300,-0.00300,0.09200,-0.04400,-0.04800,0.01500,0.19100,-0.17100,-0.27000,-0.23100,-0.13300
-0.09800,-0.11400,-0.01600,0.10600,-0.04100,-0.06500,0.02300,0.19200,-0.18700,-0.29000,-0.24400,-0.14300
-0.08500,-0.10300,-0.01800,0.09400,-0.03300,-0.06100,0.05400,0.22400,-0.13000,-0.24500,-0.24300,-0.14800
-0.13500,-0.17200,-0.03700,0.15300,-0.04900,-0.10400,0.12300,0.28400,-0.07200,-0.24600,-0.30600,-0.21200
-0.02300,-0.10100,-0.07800,0.06200,0.02800,-0.08900,0.09100,0.44300,0.35200,0.33500,0.13800,0.02100
0.38900,0.26000,-0.12900,-0.32400,0.25900,0.06500,-0.31000,0.21100,0.50900,1.35000,1.40100,0.86800
0.76300,0.65000,-0.11300,-0.70600,0.43800,0.26800,-0.85000,-0.45500,-0.12300,1.86600,2.58900,1.72900
0.75400,0.67700,-0.07700,-0.71500,0.41600,0.29900,-1.09100,-1.06500,-1.08400,1.08500,2.24700,1.68500
0.23400,0.21400,-0.02100,-0.22400,0.12700,0.09600,-0.81300,-1.11200,-1.70600,-0.79900,0.25200,0.56700
-0.08300,0.06600,0.14900,0.00900,-0.11700,0.10700,-0.38300,-0.54700,-1.23100,-1.23700,-0.66600,-0.14300
-0.08000,0.02900,0.10900,0.02600,-0.09400,0.06900,-0.11900,-0.08000,-0.54300,-0.61700,-0.40200,-0.15500
-0.11500,-0.13500,-0.02000,0.12500,-0.04700,-0.07700,0.07500,0.19800,-0.19600,-0.38100,-0.36900,-0.20600
-0.09900,-0.11100,-0.01200,0.10600,-0.04400,-0.06100,0.12600,0.27700,-0.06300,-0.24000,-0.27800,-0.18000
-0.10600,-0.12100,-0.01500,0.11400,-0.04500,-0.06800,0.13700,0.25400,-0.06100,-0.25000,-0.27900,-0.18600
-0.10400,-0.11200,-0.00900,0.10800,-0.04700,-0.06000,0.14300,0.27300,0.00500,-0.19900,-0.25800,-0.18200
-0.10100,-0.10800,-0.00700,0.10500,-0.04700,-0.05700,0.14000,0.27100,0.03000,-0.17500,-0.24200,-0.17600
-0.10300,-0.10800,-0.00500,0.10600,-0.04900,-0.05700,0.15300,0.29700,0.06400,-0.14500,-0.24100,-0.17700
-0.09800,-0.09900,-0.00100,0.09900,-0.04800,-0.05000,0.14700,0.31100,0.08900,-0.10700,-0.21100,-0.15900
-0.09600,-0.09500,0.00000,0.09600,-0.04800,-0.04700,0.15200,0.33800,0.12900,-0.09000,-0.20300,-0.15900
-0.08500,-0.08000,0.00500,0.08200,-0.04400,-0.03800,0.14800,0.36400,0.18500,-0.03300,-0.17200,-0.14400
-0.08100,-0.07400,0.00600,0.07700,-0.04300,-0.03400,0.16200,0.39200,0.25000,0.01500,-0.15100,-0.13900
-0.06700,-0.05700,0.01000,0.06200,-0.03900,-0.02300,0.18100,0.42900,0.34000,0.09000,-0.10900,-0.12700
-0.05000,-0.03900,0.01100,0.04400,-0.03000,-0.01400,0.18800,0.48100,0.43700,0.18100,-0.07000,-0.10800
-0.03700,-0.01000,0.02700,0.02300,-0.03200,0.00800,0.19500,0.54100,0.54000,0.28100,-0.01400,-0.08000
-0.02100,0.02000,0.04100,0.00000,-0.03100,0.03000,0.19100,0.60000,0.63500,0.38500,0.04700,-0.05700
-0.00400,0.05300,0.05700,-0.02500,-0.03100,0.05500,0.18600,0.63200,0.68500,0.46600,0.10200,-0.03300
0.00100,0.08100,0.08000,-0.04100,-0.04000,0.08100,0.18300,0.61900,0.68000,0.50300,0.14300,-0.01600
0.00100,0.09000,0.08900,-0.04600,-0.04400,0.09000,0.17400,0.59200,0.64500,0.49400,0.13900,-0.01600
-0.01000,0.08800,0.09800,-0.04000,-0.05400,0.09300,0.15000,0.52600,0.56100,0.44100,0.12500,-0.01500
-0.01500,0.08300,0.09800,-0.03400,-0.05700,0.09000,0.11700,0.43300,0.43700,0.35200,0.10600,-0.01500
-0.00800,0.08100,0.08900,-0.03700,-0.04800,0.08400,0.08600,0.33700,0.29800,0.22200,0.05300,-0.02200
-0.02000,0.06100,0.08100,-0.02100,-0.05000,0.07000,0.06100,0.24600,0.16400,0.09200,-0.00700,-0.03700
-0.03900,0.03200,0.07200,0.00300,-0.05600,0.05200,0.05100,0.18100,0.05400,-0.01800,-0.06300,-0.06100
-0.03700,0.02700,0.06400,0.00400,-0.05100,0.04600,0.04800,0.12700,-0.03200,-0.11500,-0.11800,-0.09000
-0.05500,0.00100,0.05600,0.02700,-0.05600,0.02800,0.04600,0.08900,-0.08100,-0.17100,-0.15100,-0.10400
-0.08400,-0.03600,0.04800,0.06000,-0.06600,0.00500,0.04200,0.07400,-0.11100,-0.20500,-0.17200,-0.10800
-0.08100,-0.04000,0.04100,0.06000,-0.06100,0.00000,0.04000,0.06800,-0.13200,-0.22500,-0.18900,-0.11800
-0.07800,-0.04300,0.03500,0.06000,-0.05600,-0.00400,0.03700,0.06400,-0.14000,-0.23400,-0.19100,-0.12100
-0.08100,-0.04600,0.03500,0.06300,-0.05800,-0.00500,0.03500,0.05800,-0.13800,-0.23600,-0.18900,-0.11900
-0.07800,-0.04400,0.03400,0.06100,-0.05500,-0.00500,0.03500,0.05200,-0.13400,-0.23400,-0.19400,-0.12100
-0.07500,-0.04500,0.03000,0.06000,-0.05200,-0.00700,0.03200,0.05200,-0.13600,-0.23500,-0.20000,-0.11900
-0.07500,-0.04500,0.03000,0.06000,-0.05200,-0.00700,0.02900,0.05600,-0.13100,-0.23500,-0.20000,-0.12100
-0.07300,-0.04600,0.02800,0.05900,-0.05000,-0.00900,0.03100,0.05500,-0.13000,-0.23500,-0.20000,-0.12400
-0.06800,-0.04400,0.02300,0.05500,-0.04500,-0.01000,0.03400,0.05500,-0.13000,-0.23500,-0.20000,-0.12100
-0.06800,-0.04800,0.02000,0.05800,-0.04400,-0.01400,0.03700,0.05500,-0.12500,-0.23000,-0.20000,-0.11900
-0.06700,-0.05000,0.01700,0.05800,-0.04200,-0.01600,0.04000,0.05500,-0.12000,-0.22200,-0.19800,-0.12000
-0.06200,-0.05000,0.01200,0.05600,-0.03700,-0.01800,0.03800,0.05500,-0.11600,-0.21600,-0.19200,-0.12000
-0.06300,-0.05400,0.01000,0.05800,-0.03600,-0.02200,0.03400,0.05400,-0.11200,-0.20900,-0.18800,-0.12000
-0.07000,-0.05600,0.01500,0.06300,-0.04200,-0.02000,0.03200,0.05500,-0.10600,-0.20200,-0.18300,-0.11700
-0.06900,-0.05400,0.01500,0.06100,-0.04200,-0.02000,0.02900,0.05200,-0.10700,-0.20200,-0.17900,-0.11400
-0.06500,-0.05000,0.01500,0.05700,-0.04000,-0.01700,0.02600,0.04300,-0.11100,-0.20600,-0.17400,-0.11500
-0.06500,-0.05000,0.01500,0.05700,-0.04000,-0.01700,0.02400,0.03300,-0.11700,-0.20500,-0.17600,-0.11500
-0.06400,-0.05000,0.01400,0.05700,-0.03900,-0.01800,0.02100,0.02600,-0.12700,-0.20700,-0.17700,-0.11600
-0.06900,-0.05100,0.01800,0.06000,-0.04400,-0.01600,0.02000,0.01500,-0.12800,-0.21500,-0.17200,-0.11500
-0.06600,-0.04300,0.02200,0.05400,-0.04400,-0.01000,0.02100,0.01300,-0.12000,-0.20800,-0.16800,-0.11000
-0.05400,-0.00600,0.04800,0.03000,-0.05100,0.02100,0.01900,0.02700,-0.11500,-0.20000,-0.16200,-0.10400
-0.04100,0.02500,0.06600,0.00700,-0.05400,0.04500,0.02200,0.02200,-0.11100,-0.19500,-0.15800,-0.09800
-0.03400,0.05400,0.08700,-0.01000,-0.06100,0.07000,0.01200,0.00700,-0.11300,-0.18800,-0.15400,-0.09200
-0.02700,0.10000,0.12700,-0.03700,-0.07800,0.11300,-0.02300,-0.00100,-0.11700,-0.19200,-0.14800,-0.08600
-0.01800,0.10400,0.12200,-0.04300,-0.07000,0.11300,-0.06200,-0.02900,-0.10900,-0.18600,-0.14500,-0.07900
-0.00300,0.08300,0.08500,-0.04000,-0.04400,0.08400,-0.09000,-0.06400,-0.16100,-0.21100,-0.13900,-0.07200
0.00500,0.05200,0.04700,-0.02900,-0.02100,0.04900,-0.08100,-0.06500,-0.20000,-0.24500,-0.13600,-0.06600
-0.01300,0.02100,0.03400,-0.00400,-0.02300,0.02700,-0.06600,-0.06000,-0.19100,-0.23000,-0.13700,-0.05900
-0.02600,-0.00700,0.01900,0.01700,-0.02200,0.00600,-0.05400,-0.06000,-0.19900,-0.23400,-0.15700,-0.07100
-0.04100,-0.05500,-0.01400,0.04800,-0.01300,-0.03400,-0.03100,-0.05000,-0.19400,-0.25000,-0.18500,-0.10800
-0.05300,-0.09500,-0.04200,0.07400,-0.00500,-0.06800,-0.01700,-0.05500,-0.21800,-0.29000,-0.22100,-0.13700
-0.06600,-0.10900,-0.04300,0.08800,-0.01100,-0.07600,0.00100,-0.03900,-0.19300,-0.27900,-0.22500,-0.14200
-0.08000,-0.12600,-0.04500,0.10300,-0.01700,-0.08500,0.00700,-0.04400,-0.20600,-0.29000,-0.22000,-0.14000
-0.07800,-0.13000,-0.05200,0.10400,-0.01200,-0.09100,0.02200,-0.01300,-0.17800,-0.29100,-0.22300,-0.15000
-0.09100,-0.14700,-0.05500,0.11900,-0.01800,-0.10100,0.05400,0.01500,-0.15100,-0.28400,-0.25500,-0.17700
-0.10100,-0.20600,-0.10500,0.15400,0.00200,-0.15500,0.10600,0.11100,-0.00300,-0.16100,-0.24100,-0.20000
0.14300,-0.00800,-0.15100,-0.06700,0.14700,-0.08000,-0.06400,0.16400,0.47300,0.74800,0.56500,0.27900
0.59400,0.41700,-0.17600,-0.50500,0.38400,0.12000,-0.58200,-0.27300,0.34400,1.77500,1.99100,1.22700
0.82800,0.72500,-0.10300,-0.77600,0.46500,0.31100,-1.06800,-0.97800,-0.48500,1.98300,2.84200,1.85400
0.62900,0.50600,-0.12300,-0.56700,0.37500,0.19200,-1.10900,-1.38000,-1.39600,0.60600,1.80200,1.41200
0.18500,0.09100,-0.09400,-0.13800,0.13900,-0.00100,-0.66600,-1.06300,-1.58000,-1.07800,-0.14000,0.29100
-0.04200,0.04400,0.08600,-0.00200,-0.06400,0.06500,-0.29100,-0.51500,-0.93000,-0.97300,-0.55300,-0.14000
-0.06100,-0.07100,-0.01000,0.06600,-0.02500,-0.04000,-0.06900,-0.14800,-0.39200,-0.47900,-0.32800,-0.16300
-0.07300,-0.16600,-0.09300,0.12000,0.01000,-0.12900,0.09800,0.08600,-0.11200,-0.30900,-0.30800,-0.20900
-0.07100,-0.13900,-0.06800,0.10500,-0.00100,-0.10300,0.10100,0.09100,-0.05900,-0.21100,-0.24300,-0.17200
-0.07300,-0.15300,-0.08000,0.11400,0.00400,-0.11600,0.11500,0.10400,-0.04200,-0.22100,-0.26700,-0.19300
-0.07300,-0.13700,-0.06500,0.10500,-0.00400,-0.10100,0.12000,0.11500,0.01000,-0.17000,-0.23300,-0.17500
-0.07300,-0.14100,-0.06900,0.10800,-0.00200,-0.10500,0.11800,0.11900,0.03100,-0.16400,-0.23800,-0.18100
-0.07300,-0.13400,-0.06100,0.10400,-0.00500,-0.09700,0.12300,0.15200,0.07300,-0.11200,-0.21600,-0.17300
-0.07200,-0.13000,-0.05800,0.10200,-0.00700,-0.09400,0.12500,0.17800,0.10500,-0.09000,-0.20000,-0.16500
-0.06800,-0.12100,-0.05300,0.09500,-0.00700,-0.08600,0.13300,0.21100,0.15900,-0.04900,-0.18500,-0.16400
-0.06100,-0.10900,-0.04800,0.08500,-0.00600,-0.07800,0.13800,0.23700,0.22100,0.01000,-0.15200,-0.15000
-0.05000,-0.09400,-0.04400,0.07300,-0.00300,-0.06900,0.15100,0.27300,0.30400,0.06800,-0.12500,-0.13700
-0.03600,-0.07600,-0.03900,0.05600,0.00200,-0.05700,0.16600,0.32000,0.40400,0.15700,-0.07700,-0.11800
-0.03000,-0.06000,-0.03000,0.04500,0.00000,-0.04500,0.18700,0.38200,0.51800,0.25500,-0.03600,-0.10800
-0.01900,-0.03300,-0.01400,0.02600,-0.00200,-0.02300,0.19100,0.45000,0.62700,0.36300,0.02300,-0.08700
0.00100,0.00000,-0.00200,0.00000,0.00200,-0.00100,0.18500,0.51000,0.70900,0.46000,0.08100,-0.05800
0.01700,0.03100,0.01400,-0.02400,0.00100,0.02200,0.18000,0.52700,0.74500,0.53300,0.13400,-0.03100
0.03200,0.05800,0.02600,-0.04600,0.00300,0.04200,0.17300,0.50800,0.72400,0.55100,0.16500,-0.02100
0.03000,0.07200,0.04200,-0.05100,-0.00600,0.05600,0.14900,0.46700,0.66600,0.53000,0.15400,-0.02000
0.01500,0.06400,0.04800,-0.04000,-0.01700,0.05500,0.11700,0.39200,0.56700,0.47100,0.14300,-0.02000
0.01000,0.05100,0.04000,-0.03100,-0.01500,0.04500,0.08800,0.28500,0.42900,0.35500,0.11400,-0.02000
0.00700,0.04100,0.03400,-0.02400,-0.01400,0.03700,0.05900,0.18100,0.28000,0.22200,0.05700,-0.02100
-0.00400,0.02300,0.02700,-0.00900,-0.01600,0.02500,0.04000,0.09500,0.14600,0.09600,0.00200,-0.03800
-0.02900,-0.00800,0.02100,0.01800,-0.02500,0.00600,0.03200,0.02700,0.04400,-0.01600,-0.05600,-0.06400
-0.04600,-0.03100,0.01400,0.03800,-0.03000,-0.00800,0.02600,-0.01500,-0.02600,-0.10100,-0.10600,-0.08300
-0.05600,-0.04800,0.00700,0.05200,-0.03100,-0.02000,0.01800,-0.04500,-0.08100,-0.15300,-0.13900,-0.09800
-0.06200,-0.06100,0.00100,0.06100,-0.03100,-0.03000,0.01000,-0.06400,-0.10900,-0.18500,-0.15800,-0.11000
-0.05800,-0.06400,-0.00600,0.06100,-0.02600,-0.03500,0.00700,-0.07200,-0.12800,-0.20700,-0.17300,-0.11500
-0.05300,-0.06600,-0.01200,0.06000,-0.02000,-0.03900,0.01000,-0.07700,-0.14300,-0.21200,-0.17500,-0.11500
-0.04600,-0.06400,-0.01800,0.05600,-0.01400,-0.04100,0.01000,-0.07900,-0.13900,-0.21800,-0.17500,-0.11500
-0.04700,-0.06800,-0.02000,0.05700,-0.01300,-0.04400,0.01000,-0.07600,-0.14100,-0.21900,-0.17500,-0.11500
-0.05000,-0.07000,-0.02000,0.06000,-0.01500,-0.04500,0.01000,-0.07500,-0.14000,-0.21400,-0.17600,-0.11500
-0.05000,-0.07000,-0.02000,0.06000,-0.01500,-0.04500,0.01000,-0.07500,-0.14000,-0.21600,-0.18000,-0.11900
-0.05400,-0.07400,-0.02000,0.06400,-0.01600,-0.04700,0.01400,-0.07500,-0.13600,-0.21200,-0.18000,-0.12000
-0.05600,-0.07500,-0.02000,0.06600,-0.01800,-0.04700,0.01500,-0.07600,-0.12700,-0.21000,-0.18000,-0.12000
-0.05900,-0.07500,-0.01600,0.06700,-0.02100,-0.04500,0.01500,-0.07200,-0.12200,-0.21100,-0.17700,-0.12000
-0.06100,-0.07500,-0.01500,0.06900,-0.02200,-0.04500,0.01500,-0.07000,-0.11300,-0.20600,-0.17400,-0.12000
-0.05900,-0.07500,-0.01500,0.06700,-0.02100,-0.04500,0.01500,-0.07000,-0.11100,-0.20000,-0.17100,-0.11900
-0.06100,-0.07500,-0.01500,0.06900,-0.02300,-0.04500,0.01500,-0.07000,-0.10800,-0.19500,-0.16800,-0.11500
-0.05900,-0.07500,-0.01500,0.06700,-0.02100,-0.04500,0.01500,-0.07000,-0.10500,-0.19000,-0.16500,-0.11500
-0.06100,-0.07600,-0.01400,0.06900,-0.02300,-0.04500,0.01500,-0.07000,-0.10200,-0.18300,-0.16500,-0.11200
-0.05700,-0.07200,-0.01600,0.06500,-0.02000,-0.04400,0.01500,-0.07800,-0.09900,-0.18100,-0.16500,-0.10900
-0.05500,-0.06900,-0.01400,0.06300,-0.02000,-0.04100,0.01500,-0.08000,-0.10600,-0.18600,-0.16500,-0.11000
-0.05500,-0.07100,-0.01600,0.06300,-0.01900,-0.04300,0.01500,-0.08400,-0.11300,-0.19000,-0.16600,-0.10700
-0.05000,-0.06900,-0.01800,0.06000,-0.01600,-0.04300,0.01200,-0.09600,-0.12000,-0.19500,-0.16600,-0.10300
-0.06600,-0.07200,-0.00600,0.06900,-0.03000,-0.03900,0.00600,-0.10000,-0.12200,-0.19300,-0.16600,-0.10000
-0.05000,-0.04400,0.00500,0.04700,-0.02800,-0.01900,0.00200,-0.09900,-0.11000,-0.18200,-0.16100,-0.09600
-0.04600,-0.01700,0.02900,0.03100,-0.03700,0.00600,-0.00200,-0.10000,-0.10400,-0.17800,-0.14900,-0.09100
-0.06200,-0.00600,0.05700,0.03400,-0.06000,0.02500,-0.00700,-0.10000,-0.10100,-0.17000,-0.14000,-0.08900
-0.03600,0.05300,0.08900,-0.00900,-0.06300,0.07100,-0.01300,-0.09900,-0.10700,-0.16700,-0.13400,-0.08200
-0.01600,0.09500,0.11100,-0.04000,-0.06400,0.10300,-0.04300,-0.11900,-0.10800,-0.16200,-0.13400,-0.07800
0.01000,0.09300,0.08400,-0.05200,-0.03700,0.08800,-0.08500,-0.15700,-0.11500,-0.16000,-0.12800,-0.07000
0.01300,0.04600,0.03300,-0.03000,-0.01000,0.03900,-0.08800,-0.17300,-0.16800,-0.20700,-0.12800,-0.06700
0.01000,0.01000,0.00000,-0.01000,0.00500,0.00500,-0.08100,-0.16800,-0.17500,-0.22200,-0.12400,-0.05900
0.00500,0.00300,-0.00200,-0.00400,0.00300,0.00100,-0.06900,-0.17300,-0.17600,-0.21800,-0.12500,-0.05300
-0.03500,-0.04400,-0.00900,0.04000,-0.01300,-0.02600,-0.03700,-0.16200,-0.17400,-0.22800,-0.16100,-0.08500
-0.05400,-0.09000,-0.03600,0.07200,-0.00800,-0.06300,-0.01900,-0.16800,-0.18600,-0.24600,-0.18800,-0.11400
-0.06700,-0.12400,-0.05700,0.09600,-0.00500,-0.09000,-0.00100,-0.16200,-0.19900,-0.27900,-0.20800,-0.13400
-0.07700,-0.13100,-0.05500,0.10400,-0.01100,-0.09300,0.01100,-0.15300,-0.17500,-0.25800,-0.19900,-0.12700
-0.08500,-0.15400,-0.06900,0.12000,-0.00800,-0.11200,0.02400,-0.14000,-0.19000,-0.28400,-0.21100,-0.13100
-0.08200,-0.14200,-0.06000,0.11300,-0.01100,-0.10000,0.04000,-0.10600,-0.13600,-0.25300,-0.20400,-0.13900
-0.11200,-0.19200,-0.08100,0.15200,-0.01500,-0.13600,0.10100,-0.08300,-0.11000,-0.26700,-0.28000,-0.19900
-0.04600,-0.18000,-0.13400,0.11400,0.04400,-0.15700,0.09700,0.07100,0.23100,0.18600,0.02400,-0.05700
0.33700,0.14400,-0.19300,-0.24100,0.26500,-0.02500,-0.25900,-0.06700,0.51900,1.25900,1.22300,0.72100
0.74300,0.54500,-0.19900,-0.64400,0.47100,0.17200,-0.80700,-0.69200,-0.00800,1.94600,2.52800,1.63700
0.78100,0.64100,-0.14000,-0.71100,0.46100,0.25000,-1.12700,-1.34300,-0.95300,1.42300,2.54900,1.80300
0.40200,0.23600,-0.16600,-0.31900,0.28400,0.03500,-0.90200,-1.42600,-1.62300,-0.42800,0.71000,0.84300
0.03100,0.02900,-0.00200,-0.03000,0.01700,0.01300,-0.43900,-0.90000,-1.30300,-1.23400,-0.55100,-0.02400
-0.06000,0.01500,0.07500,0.02200,-0.06800,0.04500,-0.16800,-0.43200,-0.61500,-0.66300,-0.38400,-0.12800
-0.07600,-0.15600,-0.08000,0.11600,0.00300,-0.11700,0.04500,-0.12700,-0.22300,-0.37200,-0.31500,-0.17900
-0.08000,-0.16200,-0.08200,0.12100,0.00100,-0.12200,0.12300,-0.02400,-0.05100,-0.22400,-0.24800,-0.17200
-0.07900,-0.15600,-0.07700,0.11800,-0.00100,-0.11600,0.11700,-0.02200,-0.04300,-0.21600,-0.23400,-0.16500
-0.08000,-0.15500,-0.07600,0.11800,-0.00200,-0.11500,0.14400,0.00900,0.00600,-0.19100,-0.23500,-0.16900
-0.07900,-0.14500,-0.06600,0.11200,-0.00600,-0.10500,0.14300,0.01200,0.02900,-0.15100,-0.20800,-0.15400
-0.08000,-0.14700,-0.06700,0.11400,-0.00600,-0.10700,0.14800,0.03900,0.06100,-0.13600,-0.21600,-0.16000
-0.07800,-0.13600,-0.05800,0.10700,-0.01000,-0.09700,0.14900,0.05300,0.09700,-0.08700,-0.17900,-0.14600
-0.07700,-0.13600,-0.05800,0.10700,-0.00900,-0.09700,0.15000,0.08700,0.14100,-0.06000,-0.17600,-0.14800
-0.06800,-0.12000,-0.05200,0.09500,-0.00800,-0.08600,0.15900,0.12100,0.20000,0.00000,-0.15000,-0.13300
-0.06400,-0.11400,-0.05000,0.08900,-0.00700,-0.08200,0.17100,0.15500,0.26500,0.04900,-0.12700,-0.12600
-0.05600,-0.10100,-0.04600,0.07900,-0.00500,-0.07300,0.18400,0.19600,0.35400,0.12200,-0.08400,-0.11500
-0.04100,-0.08200,-0.04200,0.06200,0.00100,-0.06200,0.19600,0.24600,0.44700,0.20900,-0.03700,-0.09900
-0.02800,-0.05700,-0.02900,0.04300,0.00100,-0.04300,0.20900,0.31100,0.55300,0.30000,0.00800,-0.08800
-0.01100,-0.02800,-0.01800,0.02000,0.00400,-0.02300,0.22000,0.37400,0.65000,0.40100,0.06600,-0.06700
0.00800,0.00400,-0.00400,-0.00600,0.00600,0.00000,0.21400,0.42100,0.71000,0.48400,0.11900,-0.04000
0.02200,0.03200,0.01000,-0.02700,0.00600,0.02100,0.20200,0.42200,0.70800,0.52600,0.16000,-0.01600
0.02200,0.04800,0.02600,-0.03500,-0.00200,0.03700,0.18900,0.39700,0.67500,0.52500,0.17800,-0.00900
0.01100,0.05000,0.03900,-0.03100,-0.01400,0.04400,0.16600,0.33500,0.60700,0.48400,0.17300,-0.01200
0.01200,0.04300,0.03100,-0.02800,-0.01000,0.03700,0.13600,0.24400,0.48800,0.40000,0.14600,-0.01500
0.01800,0.04200,0.02400,-0.03000,-0.00300,0.03300,0.10300,0.14300,0.35100,0.27800,0.09900,-0.01800
0.01100,0.02800,0.01700,-0.02000,-0.00300,0.02300,0.07100,0.04600,0.20900,0.14900,0.04300,-0.02100
-0.01200,-0.00300,0.00900,0.00700,-0.01000,0.00300,0.05100,-0.02800,0.09400,0.03900,-0.01000,-0.04100
-0.03100,-0.02800,0.00300,0.02900,-0.01600,-0.01300,0.04600,-0.08500,0.00900,-0.05900,-0.06200,-0.06300
-0.04200,-0.04700,-0.00500,0.04400,-0.01800,-0.02500,0.04100,-0.12400,-0.05500,-0.12500,-0.10300,-0.08000
-0.04800,-0.06400,-0.01600,0.05600,-0.01600,-0.03900,0.03700,-0.14500,-0.09300,-0.16500,-0.12800,-0.09300
-0.04800,-0.07000,-0.02200,0.05900,-0.01300,-0.04600,0.03200,-0.16100,-0.11900,-0.19100,-0.14400,-0.10200
-0.05300,-0.07400,-0.02000,0.06300,-0.01600,-0.04700,0.02900,-0.17000,-0.12800,-0.20000,-0.15100,-0.10600
-0.05800,-0.07500,-0.01700,0.06700,-0.02000,-0.04600,0.03000,-0.17500,-0.12500,-0.20900,-0.15500,-0.10500
-0.06000,-0.07500,-0.01500,0.06800,-0.02200,-0.04500,0.03000,-0.17500,-0.12500,-0.21200,-0.15600,-0.11000
-0.06800,-0.08000,-0.01100,0.07400,-0.02800,-0.04500,0.03000,-0.17500,-0.12500,-0.21500,-0.15900,-0.11000
-0.07100,-0.08000,-0.01000,0.07500,-0.03100,-0.04500,0.03000,-0.17500,-0.12500,-0.21300,-0.16100,-0.10800
-0.06600,-0.08000,-0.01400,0.07300,-0.02600,-0.04600,0.03000,-0.17500,-0.12500,-0.20800,-0.15600,-0.10500
-0.06500,-0.08000,-0.01500,0.07300,-0.02500,-0.04700,0.03400,-0.17300,-0.12100,-0.20600,-0.15500,-0.10500
-0.06500,-0.08000,-0.01500,0.07300,-0.02500,-0.04700,0.03500,-0.16900,-0.11500,-0.20100,-0.15500,-0.10500
-0.06500,-0.08000,-0.01500,0.07300,-0.02500,-0.04700,0.03500,-0.17000,-0.11000,-0.19800,-0.15000,-0.10500
-0.06600,-0.08000,-0.01500,0.07300,-0.02600,-0.04700,0.03500,-0.16600,-0.10500,-0.19400,-0.15000,-0.10500
-0.06300,-0.08000,-0.01600,0.07200,-0.02300,-0.04800,0.03500,-0.16500,-0.09800,-0.19100,-0.14900,-0.10100
-0.05700,-0.07700,-0.02000,0.06700,-0.01800,-0.04800,0.03500,-0.16500,-0.09700,-0.18700,-0.14500,-0.10000
-0.05300,-0.07300,-0.02000,0.06300,-0.01600,-0.04600,0.03500,-0.16500,-0.10000,-0.18300,-0.14300,-0.10000
-0.06400,-0.08000,-0.01600,0.07200,-0.02300,-0.04800,0.03500,-0.16600,-0.10300,-0.18000,-0.14000,-0.09500
-0.07700,-0.09100,-0.01500,0.08400,-0.03100,-0.05200,0.03700,-0.16400,-0.10500,-0.17400,-0.13700,-0.09500
-0.07100,-0.08600,-0.01500,0.07900,-0.02700,-0.05100,0.03500,-0.17000,-0.10900,-0.17900,-0.13400,-0.09400
-0.06900,-0.08300,-0.01500,0.07700,-0.02700,-0.04900,0.03500,-0.18000,-0.11600,-0.19000,-0.14100,-0.09000
-0.06400,-0.08000,-0.01500,0.07300,-0.02500,-0.04700,0.03600,-0.18300,-0.12200,-0.19400,-0.14000,-0.09100
-0.06300,-0.07600,-0.01300,0.07000,-0.02500,-0.04400,0.03500,-0.18600,-0.12500,-0.19300,-0.13400,-0.08800
-0.08100,-0.07000,0.01100,0.07600,-0.04600,-0.02900,0.03600,-0.18400,-0.11400,-0.18200,-0.13000,-0.08500
-0.07900,-0.03900,0.04000,0.05800,-0.05900,0.00000,0.03000,-0.18400,-0.10500,-0.17800,-0.12400,-0.08500
-0.06200,-0.00800,0.05400,0.03500,-0.05800,0.02300,0.02000,-0.18600,-0.09400,-0.16800,-0.12200,-0.08100
-0.05100,0.03600,0.08700,0.00700,-0.06900,0.06100,0.00900,-0.18200,-0.09000,-0.16100,-0.11200,-0.07400
-0.04100,0.07700,0.11800,-0.01800,-0.08000,0.09700,-0.02400,-0.19700,-0.09000,-0.14800,-0.10300,-0.06800
-0.03000,0.07800,0.10800,-0.02500,-0.06900,0.09300,-0.06000,-0.22400,-0.09000,-0.14100,-0.10300,-0.06200
-0.01900,0.05100,0.07000,-0.01700,-0.04500,0.06000,-0.07500,-0.25000,-0.14800,-0.19700,-0.11400,-0.05100
-0.03700,0.00500,0.04200,0.01600,-0.03900,0.02300,-0.06700,-0.24900,-0.16200,-0.21400,-0.12200,-0.05500
-0.03500,-0.00700,0.02800,0.02100,-0.03100,0.01000,-0.05900,-0.24800,-0.14700,-0.19400,-0.11100,-0.05200
-0.04500,-0.03600,0.01000,0.04000,-0.02700,-0.01300,-0.03500,-0.24300,-0.16200,-0.21600,-0.13200,-0.06300
-0.08400,-0.08700,-0.00300,0.08500,-0.04000,-0.04500,-0.01200,-0.24000,-0.17400,-0.24000,-0.16400,-0.09600
-0.09800,-0.12200,-0.02400,0.11000,-0.03700,-0.07200,0.00500,-0.24200,-0.20000,-0.27500,-0.19300,-0.11700
-0.10100,-0.13000,-0.03000,0.11600,-0.03500,-0.08000,0.02800,-0.22600,-0.17100,-0.25300,-0.17900,-0.11400
-0.10400,-0.14600,-0.04200,0.12500,-0.03100,-0.09400,0.03900,-0.22700,-0.18200,-0.27700,-0.19000,-0.12400
-0.10700,-0.14500,-0.03800,0.12600,-0.03400,-0.09200,0.04900,-0.18800,-0.14000,-0.25500,-0.18700,-0.12500
-0.13200,-0.17400,-0.04200,0.15300,-0.04400,-0.10800,0.09000,-0.17400,-0.11200,-0.26100,-0.24200,-0.17100
-0.10600,-0.20400,-0.09800,0.15500,-0.00300,-0.15100,0.12700,-0.03600,0.13000,0.00900,-0.10400,-0.13100
0.21400,0.03600,-0.17800,-0.12500,0.19600,-0.07100,-0.11900,-0.04100,0.50200,0.95800,0.89200,0.51000
0.66000,0.41700,-0.24200,-0.53800,0.45100,0.08700,-0.64200,-0.57400,0.15500,1.73500,2.25000,1.47500
0.81000,0.62800,-0.18300,-0.71900,0.49600,0.22200,-1.05500,-1.28900,-0.75700,1.49900,2.62300,1.86600
0.46200,0.31200,-0.15000,-0.38700,0.30600,0.08100,-0.97800,-1.59000,-1.61000,-0.20500,1.01700,1.03900
0.03200,0.02300,-0.00900,-0.02800,0.02100,0.00700,-0.53800,-1.15200,-1.49200,-1.31600,-0.51400,0.03700
-0.07100,0.04500,0.11700,0.01300,-0.09400,0.08100,-0.22500,-0.61100,-0.75300,-0.80300,-0.45400,-0.13100
-0.08700,-0.11500,-0.02800,0.10100,-0.02900,-0.07200,-0.00300,-0.26900,-0.30000,-0.42400,-0.32100,-0.17200
-0.09200,-0.16300,-0.07100,0.12800,-0.01000,-0.11700,0.11000,-0.11000,-0.07300,-0.26400,-0.27100,-0.17800
-0.09300,-0.14500,-0.05200,0.11900,-0.02100,-0.09800,0.10700,-0.11400,-0.04900,-0.21200,-0.22500,-0.15600
-0.09800,-0.15500,-0.05700,0.12700,-0.02000,-0.10600,0.12700,-0.07600,-0.01800,-0.19500,-0.23100,-0.17100
-0.09500,-0.13700,-0.04200,0.11600,-0.02600,-0.08900,0.12300,-0.06700,0.01000,-0.15000,-0.19100,-0.14800
-0.10000,-0.14400,-0.04400,0.12200,-0.02800,-0.09400,0.13700,-0.05400,0.04000,-0.14800,-0.20000,-0.15800
-0.08500,-0.13100,-0.04600,0.10800,-0.01900,-0.08800,0.14100,-0.03600,0.07900,-0.10000,-0.17000,-0.13900
-0.07800,-0.13000,-0.05200,0.10400,-0.01300,-0.09100,0.14200,-0.00400,0.11500,-0.07700,-0.16100,-0.13500
-0.07400,-0.11900,-0.04500,0.09700,-0.01400,-0.08200,0.14700,0.03100,0.17300,-0.02500,-0.13100,-0.12200
-0.06600,-0.11100,-0.04500,0.08900,-0.01100,-0.07800,0.14800,0.06300,0.23000,0.02600,-0.10900,-0.11000
-0.05600,-0.09700,-0.04100,0.07700,-0.00800,-0.06900,0.16300,0.10800,0.31200,0.09500,-0.07700,-0.09900
-0.04300,-0.08200,-0.03900,0.06300,-0.00200,-0.06100,0.17800,0.15300,0.40000,0.17400,-0.03300,-0.08500
-0.03200,-0.06300,-0.03200,0.04800,0.00000,-0.04700,0.20000,0.21700,0.50700,0.26700,0.01300,-0.06800
-0.01500,-0.03300,-0.01800,0.02500,0.00100,-0.02500,0.20700,0.27800,0.60300,0.36500,0.07100,-0.04700
0.00600,-0.00100,-0.00700,-0.00200,0.00600,-0.00400,0.20100,0.32700,0.66900,0.44700,0.12100,-0.02600
0.01000,0.02300,0.01300,-0.01700,-0.00200,0.01800,0.19800,0.34900,0.68300,0.49500,0.16500,0.00200
0.01600,0.04400,0.02900,-0.03000,-0.00700,0.03600,0.19300,0.33500,0.65900,0.49400,0.17800,0.01800
0.01500,0.05600,0.04000,-0.03600,-0.01300,0.04800,0.18800,0.28100,0.60200,0.46400,0.16500,0.02200
-0.00100,0.04800,0.04800,-0.02400,-0.02500,0.04800,0.16100,0.19900,0.49800,0.39700,0.14900,0.01400
0.00100,0.04400,0.04300,-0.02200,-0.02100,0.04300,0.12600,0.10100,0.37100,0.29500,0.11400,0.00700
0.00000,0.03600,0.03600,-0.01800,-0.01800,0.03600,0.10000,0.00400,0.23800,0.16800,0.06200,0.00200
-0.01100,0.01800,0.02900,-0.00300,-0.02100,0.02300,0.07600,-0.07700,0.11800,0.05000,0.01200,-0.01800
-0.03100,-0.00800,0.02200,0.01900,-0.02600,0.00700,0.06200,-0.14300,0.02700,-0.04200,-0.04200,-0.04200
-0.05000,-0.03400,0.01600,0.04100,-0.03300,-0.00800,0.05900,-0.18200,-0.03700,-0.11300,-0.09000,-0.06400
-0.05600,-0.04500,0.01100,0.05000,-0.03300,-0.01700,0.05600,-0.20900,-0.08200,-0.15700,-0.11600,-0.07700
-0.06500,-0.05600,0.01000,0.06100,-0.03800,-0.02300,0.05300,-0.22800,-0.10500,-0.18200,-0.13400,-0.08500
-0.07100,-0.06100,0.01000,0.06600,-0.04000,-0.02600,0.05000,-0.23000,-0.11400,-0.19300,-0.14500,-0.09100
-0.07000,-0.06000,0.01000,0.06500,-0.04000,-0.02500,0.05100,-0.23000,-0.12200,-0.20000,-0.14500,-0.09000
-0.07000,-0.06000,0.01000,0.06500,-0.04000,-0.02500,0.05500,-0.23400,-0.12100,-0.20000,-0.14400,-0.09000
-0.07100,-0.06000,0.01100,0.06600,-0.04100,-0.02400,0.05400,-0.23600,-0.11700,-0.20000,-0.14900,-0.09000
-0.07500,-0.06000,0.01500,0.06700,-0.04500,-0.02200,0.05700,-0.23300,-0.11100,-0.20000,-0.15100,-0.09000
-0.07100,-0.05500,0.01500,0.06300,-0.04200,-0.02000,0.06000,-0.22900,-0.10600,-0.20000,-0.14600,-0.08700
-0.07000,-0.05500,0.01500,0.06200,-0.04200,-0.02000,0.06000,-0.22300,-0.10000,-0.19700,-0.14300,-0.08400
-0.07000,-0.05500,0.01500,0.06200,-0.04200,-0.02000,0.05700,-0.22000,-0.09500,-0.18800,-0.14000,-0.08100
-0.07000,-0.05500,0.01500,0.06200,-0.04200,-0.02000,0.05400,-0.21500,-0.09100,-0.17700,-0.13500,-0.07800
-0.06700,-0.05500,0.01200,0.06100,-0.03900,-0.02100,0.05500,-0.21000,-0.08700,-0.16800,-0.13300,-0.07500
-0.06400,-0.05500,0.00900,0.06000,-0.03600,-0.02200,0.05500,-0.21300,-0.08400,-0.16900,-0.12900,-0.07500
-0.06600,-0.05500,0.01000,0.06000,-0.03700,-0.02200,0.05500,-0.21600,-0.08000,-0.17000,-0.12700,-0.07500
-0.06500,-0.05500,0.01000,0.06000,-0.03700,-0.02200,0.05400,-0.21500,-0.07500,-0.17100,-0.12400,-0.07500
-0.06500,-0.05500,0.01000,0.06000,-0.03700,-0.02200,0.05000,-0.21500,-0.07700,-0.17500,-0.12100,-0.07500
-0.06600,-0.05400,0.01200,0.06000,-0.03800,-0.02100,0.05000,-0.21500,-0.08400,-0.17500,-0.12000,-0.07500
-0.07100,-0.05600,0.01500,0.06300,-0.04200,-0.02100,0.05000,-0.21600,-0.09300,-0.17700,-0.12400,-0.07500
-0.07600,-0.06000,0.01600,0.06800,-0.04600,-0.02200,0.05000,-0.22900,-0.10000,-0.18200,-0.12900,-0.07100
-0.07300,-0.05900,0.01400,0.06500,-0.04300,-0.02200,0.05000,-0.23400,-0.10900,-0.18500,-0.13000,-0.07000
-0.06900,-0.05300,0.01700,0.06100,-0.04300,-0.01800,0.04600,-0.22800,-0.12200,-0.19100,-0.13200,-0.07100
-0.06300,-0.05000,0.01300,0.05600,-0.03800,-0.01800,0.03700,-0.22400,-0.11800,-0.19600,-0.13000,-0.06500
-0.06300,-0.03300,0.03000,0.04800,-0.04600,-0.00200,0.03100,-0.21800,-0.10700,-0.18700,-0.12100,-0.06500
-0.06300,-0.00300,0.06000,0.03300,-0.06200,0.02800,0.02300,-0.21600,-0.10100,-0.17700,-0.11200,-0.06400
-0.05100,0.01800,0.06800,0.01600,-0.06000,0.04300,0.01600,-0.20800,-0.09200,-0.16700,-0.10400,-0.05600
-0.04700,0.06200,0.10900,-0.00800,-0.07800,0.08500,0.00900,-0.22000,-0.09700,-0.16000,-0.09900,-0.04400
-0.03200,0.09700,0.12900,-0.03300,-0.08100,0.11300,-0.02500,-0.24800,-0.09200,-0.14800,-0.09900,-0.03700
-0.00800,0.09300,0.10100,-0.04300,-0.05500,0.09600,-0.05900,-0.27600,-0.10000,-0.15300,-0.09300,-0.03300
-0.00400,0.05100,0.05500,-0.02400,-0.02900,0.05300,-0.05700,-0.29900,-0.16200,-0.19900,-0.09200,-0.03000
0.00300,0.02100,0.01700,-0.01200,-0.00700,0.01900,-0.04700,-0.28900,-0.17000,-0.19600,-0.08900,-0.02700
-0.01500,0.01300,0.02800,0.00100,-0.02200,0.02000,-0.03500,-0.29200,-0.17400,-0.18800,-0.09000,-0.02200
-0.05400,-0.03700,0.01700,0.04500,-0.03500,-0.01000,-0.00600,-0.28300,-0.17700,-0.21300,-0.12600,-0.04700
-0.07900,-0.08500,-0.00600,0.08200,-0.03600,-0.04500,0.00900,-0.28400,-0.17800,-0.24700,-0.16200,-0.08400
-0.09800,-0.11100,-0.01300,0.10500,-0.04200,-0.06200,0.02400,-0.27700,-0.18300,-0.26100,-0.17000,-0.09900
-0.09800,-0.11500,-0.01700,0.10700,-0.04100,-0.06600,0.03400,-0.26600,-0.16000,-0.23500,-0.15800,-0.09000
-0.10700,-0.13700,-0.03000,0.12300,-0.03800,-0.08300,0.03400,-0.26100,-0.18200,-0.26000,-0.17300,-0.10000
-0.09600,-0.12700,-0.03100,0.11200,-0.03200,-0.07900,0.05900,-0.22100,-0.12200,-0.22000,-0.16400,-0.10300
-0.13200,-0.17700,-0.04400,0.15500,-0.04400,-0.11000,0.09600,-0.19400,-0.07500,-0.22400,-0.24000,-0.17400
-0.05100,-0.15500,-0.10400,0.10400,0.02700,-0.12900,0.09100,-0.01400,0.27200,0.24300,0.10400,-0.00900
0.34300,0.13700,-0.20600,-0.24000,0.27500,-0.03500,-0.22100,-0.14200,0.50400,1.19800,1.26800,0.78300
0.76600,0.49500,-0.27100,-0.63000,0.51800,0.11200,-0.76500,-0.79600,-0.06300,1.72500,2.47400,1.69500
0.79900,0.57700,-0.22200,-0.68800,0.51100,0.17700,-1.07300,-1.47300,-1.04300,1.03000,2.27700,1.75800
0.32100,0.19200,-0.12800,-0.25600,0.22400,0.03200,-0.86600,-1.60200,-1.73800,-0.78800,0.35300,0.66900
-0.05400,0.03400,0.08800,0.01000,-0.07100,0.06000,-0.43800,-1.05500,-1.32600,-1.29600,-0.63800,-0.08700
-0.09100,0.03100,0.12100,0.03000,-0.10600,0.07600,-0.16200,-0.54600,-0.60200,-0.65000,-0.36900,-0.11000
-0.09300,-0.13600,-0.04300,0.11500,-0.02500,-0.09000,0.04900,-0.24400,-0.23000,-0.37500,-0.30600,-0.17000
-0.08800,-0.13700,-0.04900,0.11300,-0.01900,-0.09300,0.10900,-0.14700,-0.05900,-0.22100,-0.22200,-0.14200
-0.09300,-0.13700,-0.04300,0.11600,-0.02500,-0.09000,0.10000,-0.15400,-0.06100,-0.22000,-0.22400,-0.14500
-0.09200,-0.13600,-0.04400,0.11400,-0.02300,-0.09000,0.12100,-0.11600,-0.01300,-0.18100,-0.20700,-0.14300
-0.09100,-0.12600,-0.03500,0.10900,-0.02800,-0.08000,0.11500,-0.11400,0.00600,-0.15400,-0.18700,-0.13100
-0.09300,-0.13000,-0.03700,0.11200,-0.02800,-0.08300,0.12700,-0.08900,0.04100,-0.12900,-0.18400,-0.13500
-0.09000,-0.11900,-0.02900,0.10400,-0.03000,-0.07400,0.12300,-0.07200,0.07600,-0.08500,-0.15200,-0.11600
-0.08600,-0.11600,-0.03000,0.10100,-0.02800,-0.07300,0.13000,-0.04000,0.11600,-0.06200,-0.14100,-0.11700
-0.07800,-0.10200,-0.02400,0.09100,-0.02600,-0.06300,0.14000,-0.00300,0.16900,-0.00900,-0.10400,-0.10100
-0.07500,-0.09800,-0.02300,0.08700,-0.02600,-0.06000,0.14400,0.03000,0.22600,0.03600,-0.08900,-0.09200
-0.06200,-0.08200,-0.02000,0.07200,-0.02100,-0.05100,0.15000,0.06900,0.30900,0.10800,-0.05300,-0.07600
-0.04600,-0.06300,-0.01700,0.05500,-0.01400,-0.03900,0.16400,0.12100,0.39700,0.18800,-0.01600,-0.06400
-0.03800,-0.04200,-0.00400,0.04000,-0.01600,-0.02300,0.18100,0.18200,0.49800,0.28100,0.03600,-0.05000
-0.02500,-0.01700,0.00800,0.02100,-0.01600,-0.00500,0.18900,0.24100,0.58800,0.37100,0.09200,-0.02500
-0.00700,0.01100,0.01700,-0.00200,-0.01200,0.01400,0.19100,0.28100,0.63400,0.44300,0.14000,-0.00300
0.00900,0.03900,0.03100,-0.02400,-0.01100,0.03500,0.18000,0.27600,0.63500,0.47300,0.16900,0.01700
0.01700,0.05800,0.04100,-0.03800,-0.01300,0.05000,0.16800,0.25800,0.60400,0.46400,0.16800,0.02800
0.00900,0.06100,0.05300,-0.03500,-0.02200,0.05700,0.14400,0.20600,0.53600,0.42400,0.16500,0.02500
-0.00500,0.05400,0.05800,-0.02500,-0.03200,0.05600,0.10900,0.11900,0.43300,0.34500,0.14300,0.01700
-0.01400,0.04000,0.05300,-0.01300,-0.03400,0.04600,0.08000,0.02400,0.30500,0.23600,0.09900,0.01100
-0.01400,0.03000,0.04500,-0.00800,-0.03000,0.03700,0.05200,-0.06700,0.18100,0.11900,0.05000,0.00300
-0.02600,0.01400,0.04000,0.00600,-0.03300,0.02600,0.03400,-0.14000,0.07400,0.01900,-0.00400,-0.01800
-0.03800,-0.01000,0.02800,0.02400,-0.03300,0.00900,0.02600,-0.19100,-0.00800,-0.06700,-0.04700,-0.03400
-0.05000,-0.01900,0.03100,0.03500,-0.04100,0.00600,0.02100,-0.23100,-0.06700,-0.12600,-0.08500,-0.05400
-0.10100,-0.05100,0.04900,0.07600,-0.07500,-0.00100,0.01600,-0.25500,-0.10500,-0.16600,-0.11500,-0.07600
-0.11000,-0.06700,0.04300,0.08800,-0.07600,-0.01200,0.00900,-0.25900,-0.11600,-0.18900,-0.12800,-0.07500
-0.09400,-0.05800,0.03600,0.07600,-0.06500,-0.01100,0.00600,-0.26600,-0.12200,-0.19200,-0.13300,-0.07500
-0.08600,-0.05700,0.02800,0.07100,-0.05600,-0.01400,0.00900,-0.26400,-0.12000,-0.19600,-0.13800,-0.07500
-0.07200,-0.05200,0.02000,0.06200,-0.04600,-0.01600,0.01000,-0.26000,-0.12000,-0.20300,-0.14000,-0.07500
-0.06400,-0.04900,0.01500,0.05600,-0.04000,-0.01700,0.01000,-0.25900,-0.11800,-0.20200,-0.14000,-0.07500
-0.05000,-0.04400,0.00500,0.04700,-0.02700,-0.01900,0.01000,-0.25500,-0.11400,-0.19600,-0.14000,-0.07400
-0.08300,-0.06100,0.02200,0.07200,-0.05200,-0.01900,0.01000,-0.25400,-0.11600,-0.19200,-0.14000,-0.07500
-0.09700,-0.06600,0.03100,0.08100,-0.06400,-0.01700,0.01000,-0.25000,-0.11100,-0.18700,-0.14000,-0.07500
-0.08100,-0.05800,0.02200,0.06900,-0.05200,-0.01800,0.01000,-0.24700,-0.10400,-0.18300,-0.14000,-0.07500
-0.07800,-0.05800,0.02000,0.06800,-0.04900,-0.01900,0.01000,-0.24500,-0.09700,-0.17800,-0.13700,-0.07400
-0.06600,-0.05200,0.01500,0.05800,-0.04000,-0.01800,0.01000,-0.24100,-0.09100,-0.17500,-0.13100,-0.07100
-0.06000,-0.05000,0.01000,0.05500,-0.03500,-0.02000,0.01000,-0.24000,-0.08400,-0.17500,-0.12700,-0.07000
-0.05500,-0.04500,0.01000,0.05000,-0.03200,-0.01700,0.00900,-0.24300,-0.08100,-0.17500,-0.12200,-0.07000
-0.05500,-0.04500,0.01000,0.05000,-0.03200,-0.01700,0.00600,-0.24800,-0.08800,-0.17500,-0.11700,-0.07000
-0.05500,-0.04500,0.01000,0.05000,-0.03200,-0.01700,0.00100,-0.25100,-0.09400,-0.17500,-0.11500,-0.07000
-0.05500,-0.04500,0.01000,0.05000,-0.03200,-0.01700,-0.00100,-0.25700,-0.10100,-0.17900,-0.12600,-0.07300
-0.05400,-0.04500,0.00900,0.05000,-0.03100,-0.01700,-0.00600,-0.26500,-0.11000,-0.18100,-0.13900,-0.07500
-0.05900,-0.04700,0.01200,0.05300,-0.03500,-0.01700,-0.01000,-0.27400,-0.12100,-0.19000,-0.14000,-0.07600
-0.07300,-0.05700,0.01600,0.06500,-0.04500,-0.02000,-0.00800,-0.28000,-0.12500,-0.19900,-0.14100,-0.08100
-0.08200,-0.05800,0.02400,0.07000,-0.05300,-0.01700,-0.00400,-0.27900,-0.13000,-0.19300,-0.14000,-0.08000
-0.07700,-0.05100,0.02600,0.06400,-0.05200,-0.01200,-0.00500,-0.28000,-0.12600,-0.18700,-0.13200,-0.07400
-0.07200,-0.02900,0.04200,0.05000,-0.05700,0.00600,-0.00500,-0.27900,-0.11400,-0.18100,-0.12300,-0.06500
-0.06100,0.00800,0.06800,0.02600,-0.06400,0.03800,-0.00400,-0.28100,-0.10500,-0.17600,-0.11800,-0.05900
-0.04000,0.04200,0.08200,-0.00100,-0.06100,0.06200,-0.01700,-0.27800,-0.09500,-0.17100,-0.10900,-0.05200
-0.02700,0.08500,0.11200,-0.02900,-0.07000,0.09900,-0.03700,-0.28700,-0.09500,-0.17000,-0.10300,-0.04300
-0.01000,0.11400,0.12400,-0.05200,-0.06700,0.11800,-0.07300,-0.31300,-0.08500,-0.17000,-0.09300,-0.04500
0.00600,0.09500,0.08800,-0.05100,-0.04100,0.09100,-0.11200,-0.34600,-0.11200,-0.17300,-0.08400,-0.04500
0.00900,0.05800,0.04800,-0.03400,-0.02000,0.05300,-0.11200,-0.37700,-0.16500,-0.20300,-0.10700,-0.04500
-0.00200,0.03300,0.03400,-0.01600,-0.01800,0.03300,-0.09300,-0.37200,-0.15000,-0.19500,-0.10100,-0.04500
-0.02900,-0.00600,0.02300,0.01700,-0.02600,0.00800,-0.06600,-0.37300,-0.15400,-0.19600,-0.10300,-0.04400
-0.04800,-0.04500,0.00300,0.04600,-0.02500,-0.02000,-0.04300,-0.36500,-0.17000,-0.22800,-0.14000,-0.05500
-0.06500,-0.08100,-0.01700,0.07300,-0.02400,-0.04800,-0.03400,-0.36800,-0.19100,-0.25400,-0.17200,-0.08400
-0.08000,-0.10800,-0.02800,0.09400,-0.02600,-0.06800,-0.02100,-0.36200,-0.17700,-0.25100,-0.17000,-0.09700
-0.07700,-0.10700,-0.03000,0.09200,-0.02400,-0.06800,-0.01400,-0.35200,-0.16700,-0.24100,-0.16800,-0.09200
-0.08900,-0.12700,-0.03900,0.10800,-0.02500,-0.08300,0.00200,-0.34500,-0.17100,-0.25700,-0.19600,-0.11800
-0.09500,-0.13100,-0.03600,0.11400,-0.03000,-0.08300,0.03100,-0.30400,-0.10000,-0.22400,-0.18400,-0.11400
-0.12600,-0.18000,-0.05400,0.15400,-0.03600,-0.11700,0.10200,-0.23500,-0.01900,-0.16200,-0.20500,-0.16100
0.01700,-0.09500,-0.11300,0.03900,0.06500,-0.10300,0.05000,-0.07700,0.38500,0.46400,0.32100,0.13100
0.46800,0.21600,-0.25200,-0.34100,0.36000,-0.01800,-0.35500,-0.32400,0.47300,1.35200,1.56700,1.01700
0.84800,0.55700,-0.29100,-0.70200,0.56900,0.13300,-0.89200,-1.03900,-0.21300,1.66000,2.60300,1.84500
0.72700,0.52400,-0.20200,-0.62500,0.46400,0.16100,-1.10100,-1.67600,-1.23600,0.58300,1.86300,1.58300
0.21100,0.14000,-0.07100,-0.17500,0.14100,0.03400,-0.79700,-1.67000,-1.75900,-1.12900,-0.11100,0.38200
-0.05900,0.07600,0.13500,-0.00900,-0.09800,0.10600,-0.40400,-1.05900,-1.16100,-1.17500,-0.63300,-0.12300
-0.07400,-0.00200,0.07200,0.03800,-0.07300,0.03500,-0.13700,-0.57000,-0.50300,-0.56900,-0.35000,-0.11200
-0.09900,-0.15900,-0.06100,0.12900,-0.01900,-0.11000,0.06200,-0.30600,-0.17300,-0.35500,-0.30100,-0.17800
-0.09100,-0.13500,-0.04300,0.11300,-0.02400,-0.08900,0.09300,-0.24600,-0.05800,-0.22000,-0.21800,-0.13500
-0.08900,-0.14300,-0.05400,0.11600,-0.01700,-0.09800,0.09700,-0.24100,-0.05600,-0.22300,-0.23800,-0.15500
-0.08600,-0.12800,-0.04300,0.10700,-0.02100,-0.08500,0.10800,-0.20500,0.01200,-0.16000,-0.19400,-0.13800
-0.07800,-0.12400,-0.04600,0.10200,-0.01600,-0.08500,0.10200,-0.20400,0.02300,-0.15700,-0.19600,-0.14000
-0.07500,-0.11900,-0.04400,0.09700,-0.01500,-0.08100,0.11100,-0.17300,0.05900,-0.12100,-0.17800,-0.13500
-0.07300,-0.11000,-0.03700,0.09200,-0.01700,-0.07300,0.11000,-0.15200,0.08400,-0.09200,-0.15600,-0.11900
-0.07200,-0.10500,-0.03300,0.08900,-0.01900,-0.06900,0.11800,-0.11900,0.12800,-0.05900,-0.14100,-0.11500
-0.06700,-0.09300,-0.02700,0.08000,-0.02000,-0.06000,0.12500,-0.08600,0.18400,-0.00500,-0.11400,-0.09600
-0.06400,-0.08600,-0.02200,0.07600,-0.02100,-0.05400,0.13300,-0.04300,0.24300,0.04500,-0.09800,-0.09100
-0.06600,-0.08100,-0.01500,0.07300,-0.02500,-0.04700,0.14900,0.00900,0.32200,0.11400,-0.05700,-0.07200
-0.02900,-0.07300,-0.04400,0.05100,0.00700,-0.05800,0.16300,0.05900,0.40800,0.18400,-0.02100,-0.06200
0.00600,-0.03600,-0.04100,0.01500,0.02300,-0.03800,0.16900,0.12200,0.50600,0.28300,0.03700,-0.04300
0.01700,0.00100,-0.01600,-0.00900,0.01700,-0.00700,0.16300,0.18100,0.58800,0.36600,0.09400,-0.01600
0.02600,0.02000,-0.00700,-0.02300,0.01600,0.00600,0.15300,0.21700,0.63000,0.43400,0.14100,0.01500
0.03300,0.04300,0.01000,-0.03900,0.01200,0.02600,0.14500,0.21400,0.62600,0.46200,0.17300,0.03200
0.04300,0.06600,0.02300,-0.05400,0.00900,0.04400,0.13600,0.18200,0.58200,0.43700,0.16800,0.02800
0.02500,0.06200,0.03600,-0.04400,-0.00600,0.04900,0.12400,0.12900,0.51400,0.39000,0.15200,0.04400
0.01400,0.05000,0.03600,-0.03200,-0.01100,0.04300,0.09500,0.04900,0.41600,0.31900,0.13000,0.04000
0.01000,0.03900,0.02900,-0.02400,-0.01000,0.03400,0.06700,-0.04700,0.29200,0.21200,0.08800,0.01600
0.00100,0.02700,0.02600,-0.01400,-0.01300,0.02600,0.04900,-0.14100,0.16700,0.08800,0.02400,0.00000
-0.01200,0.00900,0.02100,0.00100,-0.01700,0.01500,0.04000,-0.20800,0.06600,-0.00500,-0.02300,-0.01700
-0.03000,-0.01300,0.01700,0.02100,-0.02300,0.00200,0.03700,-0.25100,-0.00100,-0.07800,-0.05900,-0.03100
-0.04000,-0.02800,0.01200,0.03400,-0.02600,-0.00800,0.03000,-0.28000,-0.05500,-0.14100,-0.10500,-0.05400
-0.05200,-0.04200,0.01000,0.04700,-0.03000,-0.01600,0.02500,-0.30100,-0.08400,-0.17400,-0.12700,-0.06500
-0.05500,-0.04500,0.01000,0.05000,-0.03200,-0.01700,0.02000,-0.30900,-0.09900,-0.19100,-0.13900,-0.07200
-0.05500,-0.04500,0.01000,0.05000,-0.03200,-0.01700,0.01500,-0.30400,-0.11200,-0.20000,-0.14700,-0.07500
-0.05500,-0.04500,0.01000,0.05000,-0.03200,-0.01700,0.01500,-0.29900,-0.11400,-0.20600,-0.15100,-0.07900
-0.05400,-0.04500,0.01000,0.05000,-0.03200,-0.01700,0.01300,-0.29400,-0.11400,-0.20400,-0.16000,-0.08600
-0.05900,-0.05300,0.00500,0.05600,-0.03200,-0.02400,0.01100,-0.28700,-0.10700,-0.19900,-0.15900,-0.08400
-0.06100,-0.05600,0.00500,0.05800,-0.03200,-0.02500,0.00900,-0.28300,-0.10100,-0.19700,-0.15600,-0.08500
-0.05900,-0.05500,0.00400,0.05600,-0.03100,-0.02500,0.01500,-0.27600,-0.09700,-0.19200,-0.15200,-0.08500
-0.05100,-0.05200,-0.00100,0.05100,-0.02500,-0.02600,0.02100,-0.25700,-0.08400,-0.19000,-0.14900,-0.08500
-0.05000,-0.05000,0.00100,0.05000,-0.02500,-0.02500,0.02800,-0.24300,-0.06200,-0.18000,-0.14500,-0.08100
-0.04700,-0.05000,-0.00300,0.04900,-0.02200,-0.02600,0.03700,-0.23800,-0.05400,-0.16400,-0.14200,-0.08000
-0.04200,-0.05100,-0.00900,0.04700,-0.01700,-0.02900,0.03200,-0.23000,-0.05600,-0.15800,-0.13800,-0.08000
-0.05000,-0.05600,-0.00600,0.05300,-0.02200,-0.03100,0.03000,-0.22500,-0.05400,-0.16100,-0.13700,-0.07500
-0.05000,-0.05500,-0.00400,0.05300,-0.02200,-0.03000,0.02700,-0.21700,-0.05600,-0.16000,-0.13300,-0.07400
-0.04900,-0.05500,-0.00600,0.05300,-0.02100,-0.03000,0.02400,-0.21700,-0.05400,-0.16000,-0.13100,-0.07700
-0.05100,-0.05500,-0.00400,0.05300,-0.02300,-0.02900,0.02500,-0.22000,-0.06100,-0.16000,-0.12800,-0.08000
-0.04700,-0.05500,-0.00900,0.05100,-0.01800,-0.03200,0.02500,-0.22000,-0.07300,-0.16000,-0.12400,-0.08000
-0.04200,-0.05400,-0.01200,0.04800,-0.01400,-0.03300,0.02500,-0.22000,-0.08100,-0.17200,-0.13600,-0.08000
-0.04200,-0.04800,-0.00700,0.04500,-0.01700,-0.02700,0.02500,-0.21400,-0.09600,-0.18100,-0.14100,-0.07700
-0.04200,-0.04200,0.00000,0.04200,-0.02100,-0.02100,0.02500,-0.20700,-0.10500,-0.19000,-0.15200,-0.07100
-0.04200,-0.03800,0.00400,0.03900,-0.02200,-0.01700,0.02700,-0.20000,-0.09700,-0.18900,-0.15600,-0.06700
-0.04900,-0.02200,0.02600,0.03500,-0.03700,0.00200,0.03000,-0.19400,-0.08700,-0.17600,-0.14700,-0.06300
-0.04300,0.01600,0.05900,0.01300,-0.05100,0.03700,0.02000,-0.18700,-0.07700,-0.16800,-0.14200,-0.05700
-0.02900,0.04700,0.07600,-0.00900,-0.05300,0.06100,0.01000,-0.18600,-0.07100,-0.15600,-0.12100,-0.05400
-0.02000,0.09000,0.10900,-0.03500,-0.06500,0.09900,-0.00100,-0.19100,-0.06700,-0.14500,-0.10600,-0.04600
-0.00100,0.12600,0.12700,-0.06300,-0.06400,0.12600,-0.03100,-0.20100,-0.05700,-0.13100,-0.09100,-0.03900
0.01500,0.11000,0.09500,-0.06200,-0.04100,0.10200,-0.05800,-0.22700,-0.08700,-0.15200,-0.09500,-0.02900
0.02400,0.07100,0.04700,-0.04800,-0.01200,0.05900,-0.05600,-0.24100,-0.13300,-0.19600,-0.12300,-0.02300
0.02300,0.04400,0.02100,-0.03300,0.00000,0.03200,-0.04400,-0.22600,-0.11300,-0.17900,-0.11800,-0.02300
-0.00200,0.01100,0.01300,-0.00500,-0.00700,0.01200,-0.03000,-0.22400,-0.12000,-0.18700,-0.12000,-0.03200
-0.03200,-0.03200,0.00000,0.03200,-0.01600,-0.01600,-0.00600,-0.20900,-0.13800,-0.21200,-0.14800,-0.06100
-0.05000,-0.07700,-0.02800,0.06400,-0.01100,-0.05200,0.00700,-0.20900,-0.16900,-0.24600,-0.18300,-0.08700
-0.05900,-0.10100,-0.04200,0.08000,-0.00800,-0.07200,0.02800,-0.18800,-0.16500,-0.25100,-0.19300,-0.09800
-0.06700,-0.10700,-0.04000,0.08700,-0.01300,-0.07300,0.04500,-0.16500,-0.14200,-0.22900,-0.18500,-0.09000
-0.07500,-0.11600,-0.04200,0.09600,-0.01700,-0.07900,0.04300,-0.15500,-0.15100,-0.25000,-0.20500,-0.10200
-0.07400,-0.11300,-0.03900,0.09400,-0.01700,-0.07600,0.07900,-0.07900,-0.06200,-0.18400,-0.18900,-0.11200
-0.10800,-0.18300,-0.07500,0.14600,-0.01600,-0.12900,0.15400,0.01100,0.04300,-0.10400,-0.19700,-0.16200
0.02500,-0.10000,-0.12500,0.03700,0.07500,-0.11200,0.12400,0.18300,0.45800,0.48600,0.29100,0.10700
0.44000,0.20900,-0.23100,-0.32400,0.33500,-0.01100,-0.24300,-0.03800,0.53100,1.32300,1.48700,0.95500
0.81700,0.57800,-0.24000,-0.69700,0.52800,0.16900,-0.77900,-0.71800,-0.14300,1.65600,2.57600,1.81300
0.72100,0.61300,-0.10800,-0.66700,0.41400,0.25300,-0.98500,-1.32600,-1.09200,0.71900,1.96100,1.60300
0.17700,0.21600,0.03900,-0.19700,0.06900,0.12700,-0.70600,-1.38500,-1.68500,-1.01200,-0.04400,0.37500
-0.08000,0.08600,0.16700,-0.00300,-0.12400,0.12600,-0.34000,-0.79500,-1.16000,-1.17400,-0.64800,-0.17100
-0.05700,-0.00400,0.05200,0.03100,-0.05500,0.02400,-0.08500,-0.28900,-0.49200,-0.56700,-0.36000,-0.13800
-0.07700,-0.14900,-0.07200,0.11400,-0.00300,-0.11000,0.10500,-0.04600,-0.16700,-0.33800,-0.32400,-0.18600
-0.06600,-0.12500,-0.06000,0.09600,-0.00200,-0.09300,0.12800,0.02800,-0.04000,-0.20100,-0.22300,-0.13400
-0.06900,-0.13800,-0.06900,0.10400,0.00000,-0.10300,0.12900,0.04400,-0.04300,-0.21000,-0.24600,-0.15100
-0.06300,-0.12600,-0.06300,0.09500,0.00000,-0.09400,0.14900,0.08200,0.01700,-0.14600,-0.20700,-0.13600
-0.05900,-0.12500,-0.06600,0.09300,0.00400,-0.09600,0.14200,0.08700,0.02900,-0.13100,-0.19300,-0.13200
-0.05700,-0.12200,-0.06500,0.09000,0.00400,-0.09300,0.14800,0.11700,0.07100,-0.09700,-0.17700,-0.13000
-0.05500,-0.11500,-0.06000,0.08500,0.00200,-0.08700,0.14900,0.13900,0.09800,-0.06600,-0.15700,-0.11900
-0.04500,-0.10600,-0.06100,0.07600,0.00800,-0.08300,0.15100,0.17500,0.13600,-0.03400,-0.15200,-0.11600
-0.03300,-0.09100,-0.05800,0.06200,0.01300,-0.07400,0.15200,0.21100,0.18500,0.01700,-0.12200,-0.09900
-0.02900,-0.08400,-0.05500,0.05700,0.01300,-0.06900,0.16000,0.25600,0.24300,0.06000,-0.10200,-0.08500
-0.02000,-0.07500,-0.05500,0.04800,0.01800,-0.06500,0.16500,0.30800,0.31800,0.13100,-0.05800,-0.06100
-0.01200,-0.06300,-0.05200,0.03800,0.02000,-0.05700,0.17600,0.36700,0.40900,0.21100,-0.01000,-0.04900
0.01100,-0.02600,-0.03600,0.00800,0.02400,-0.03100,0.18600,0.43100,0.50100,0.30000,0.03900,-0.02800
0.02100,-0.00300,-0.02300,-0.00900,0.02200,-0.01300,0.18700,0.48900,0.58000,0.39200,0.09900,-0.00400
0.02700,0.02400,-0.00300,-0.02600,0.01500,0.01000,0.18100,0.51800,0.62600,0.46800,0.15400,0.02100
0.04100,0.05800,0.01700,-0.05000,0.01200,0.03800,0.16900,0.50400,0.60700,0.46900,0.17400,0.03900
0.04300,0.06400,0.02200,-0.05400,0.01000,0.04300,0.16100,0.49000,0.58000,0.45500,0.19000,0.04400
0.02900,0.06100,0.03200,-0.04500,-0.00200,0.04600,0.14300,0.45300,0.51800,0.43300,0.18700,0.03900
0.01600,0.05600,0.04000,-0.03600,-0.01200,0.04800,0.11200,0.38400,0.41100,0.35200,0.14300,0.02900
0.02000,0.05200,0.03200,-0.03600,-0.00600,0.04200,0.08600,0.30300,0.29400,0.24500,0.09000,0.02200
0.01800,0.04400,0.02600,-0.03100,-0.00400,0.03500,0.07100,0.22300,0.17900,0.12500,0.03900,0.00800
-0.00400,0.01500,0.01900,-0.00600,-0.01200,0.01700,0.06600,0.17100,0.08500,0.02000,-0.01500,-0.01500
-0.02600,-0.01400,0.01200,0.02000,-0.01900,-0.00100,0.06200,0.13300,0.01100,-0.05900,-0.07600,-0.03800
-0.03200,-0.02600,0.00600,0.02900,-0.01900,-0.00900,0.05700,0.11400,-0.04000,-0.11800,-0.11600,-0.05700
-0.04400,-0.04300,0.00100,0.04300,-0.02200,-0.02100,0.05300,0.11500,-0.07200,-0.14700,-0.12900,-0.06400
-0.05200,-0.05200,0.00000,0.05200,-0.02600,-0.02600,0.04800,0.11400,-0.08800,-0.16100,-0.14300,-0.06600
-0.04900,-0.04900,0.00000,0.04900,-0.02500,-0.02500,0.04500,0.11500,-0.08700,-0.16800,-0.15300,-0.07500
-0.05000,-0.05000,0.00000,0.05000,-0.02500,-0.02500,0.04500,0.11400,-0.08500,-0.17100,-0.15500,-0.07600
-0.05000,-0.05000,0.00000,0.05000,-0.02500,-0.02500,0.04500,0.12100,-0.08500,-0.17600,-0.15500,-0.07400
-0.04900,-0.05000,-0.00200,0.04900,-0.02400,-0.02600,0.04500,0.14500,-0.08200,-0.17300,-0.15500,-0.07100
-0.04500,-0.05000,-0.00500,0.04800,-0.02000,-0.02700,0.04500,0.15500,-0.07900,-0.16800,-0.15400,-0.06900
-0.04200,-0.05000,-0.00700,0.04600,-0.01700,-0.02800,0.04900,0.16400,-0.08100,-0.16400,-0.14900,-0.07200
-0.04000,-0.05000,-0.01000,0.04500,-0.01500,-0.03000,0.04700,0.18100,-0.06800,-0.15900,-0.14400,-0.07700
-0.03600,-0.05000,-0.01300,0.04300,-0.01100,-0.03100,0.04400,0.19400,-0.05200,-0.15200,-0.14000,-0.07600
-0.03500,-0.05000,-0.01500,0.04300,-0.01000,-0.03200,0.04600,0.20500,-0.05000,-0.13700,-0.13500,-0.07200
-0.03500,-0.05000,-0.01500,0.04300,-0.01000,-0.03200,0.04400,0.21400,-0.05000,-0.13300,-0.13000,-0.07000
-0.03500,-0.05000,-0.01500,0.04300,-0.01000,-0.03200,0.04500,0.21800,-0.05000,-0.13500,-0.13400,-0.06600
-0.03400,-0.05000,-0.01600,0.04200,-0.00900,-0.03300,0.04400,0.22400,-0.05100,-0.13500,-0.13500,-0.06500
-0.03200,-0.05000,-0.01700,0.04100,-0.00800,-0.03300,0.04000,0.24200,-0.04900,-0.13500,-0.13500,-0.06900
-0.03300,-0.04500,-0.01200,0.03900,-0.01000,-0.02800,0.04000,0.24600,-0.06300,-0.13500,-0.14000,-0.07100
-0.02700,-0.03700,-0.00900,0.03200,-0.00900,-0.02300,0.03800,0.24300,-0.07800,-0.13600,-0.14100,-0.07500
-0.02600,-0.03200,-0.00600,0.03000,-0.01000,-0.01900,0.03500,0.24600,-0.08600,-0.14000,-0.14000,-0.07500
-0.02200,-0.02300,-0.00100,0.02300,-0.01000,-0.01200,0.03600,0.24400,-0.09400,-0.14800,-0.13400,-0.06800
-0.02100,-0.02000,0.00100,0.02000,-0.01100,-0.00900,0.03100,0.24900,-0.08400,-0.14300,-0.12500,-0.06300
-0.03000,-0.00600,0.02400,0.01800,-0.02700,0.00900,0.02200,0.26900,-0.07500,-0.13400,-0.12000,-0.05600
-0.01800,0.02200,0.04100,-0.00200,-0.03000,0.03100,0.01700,0.28000,-0.06100,-0.12500,-0.11200,-0.05200
-0.01200,0.06300,0.07500,-0.02600,-0.04400,0.06900,0.00700,0.27400,-0.05700,-0.11700,-0.10600,-0.04500
-0.01500,0.10400,0.11900,-0.04500,-0.06700,0.11100,-0.01600,0.25900,-0.06300,-0.11400,-0.09300,-0.03700
-0.01100,0.10100,0.11200,-0.04600,-0.06200,0.10700,-0.04800,0.25500,-0.06700,-0.11600,-0.09000,-0.02900
0.01000,0.08200,0.07300,-0.04600,-0.03200,0.07700,-0.06900,0.25400,-0.11500,-0.15500,-0.11800,-0.02100
0.02700,0.06100,0.03400,-0.04400,-0.00400,0.04800,-0.05900,0.25400,-0.13500,-0.16900,-0.12600,-0.01400
0.00100,0.02800,0.02700,-0.01500,-0.01300,0.02700,-0.03800,0.25900,-0.12400,-0.14800,-0.10700,-0.00300
-0.02000,-0.02000,0.00000,0.02000,-0.01000,-0.01000,-0.01800,0.26400,-0.14100,-0.17300,-0.13100,-0.04100
-0.03000,-0.05900,-0.02900,0.04500,0.00000,-0.04400,-0.00100,0.28100,-0.15100,-0.19800,-0.16700,-0.07200
-0.05900,-0.10500,-0.04600,0.08200,-0.00700,-0.07500,0.01100,0.28700,-0.17200,-0.22300,-0.19100,-0.08400
-0.05900,-0.11200,-0.05300,0.08600,-0.00200,-0.08200,0.02500,0.32200,-0.13700,-0.19500,-0.18500,-0.08200
-0.05700,-0.12400,-0.06600,0.09100,0.00400,-0.09500,0.03300,0.32600,-0.15700,-0.21300,-0.18900,-0.07700
-0.06800,-0.13400,-0.06600,0.10200,-0.00100,-0.10000,0.04700,0.36300,-0.12000,-0.19100,-0.18200,-0.08800
-0.08300,-0.15400,-0.07100,0.11900,-0.00600,-0.11300,0.09700,0.42800,-0.06300,-0.16700,-0.21700,-0.12600
-0.08000,-0.19600,-0.11600,0.13800,0.01800,-0.15600,0.15800,0.58000,0.17500,0.05900,-0.10800,-0.10900
0.18000,0.03500,-0.14500,-0.10700,0.16200,-0.05500,-0.03200,0.62100,0.56800,0.91900,0.77400,0.44600
0.60900,0.43600,-0.17300,-0.52200,0.39100,0.13100,-0.53600,0.13500,0.26300,1.66500,2.12200,1.40500
0.81200,0.73000,-0.08300,-0.77100,0.44700,0.32300,-0.96700,-0.54500,-0.58200,1.57700,2.68400,1.90600
0.47800,0.46300,-0.01500,-0.47000,0.24700,0.22300,-0.92300,-0.93000,-1.49400,0.01400,1.19700,1.13400
0.01000,0.06500,0.05500,-0.03800,-0.02300,0.06000,-0.51800,-0.57800,-1.52400,-1.25000,-0.50700,0.03300
-0.06500,0.04100,0.10500,0.01200,-0.08500,0.07300,-0.20900,0.01300,-0.78600,-0.83300,-0.52300,-0.15800
-0.06600,-0.10000,-0.03400,0.08300,-0.01600,-0.06700,0.00700,0.36100,-0.30800,-0.40300,-0.32900,-0.14200
-0.08000,-0.16500,-0.08500,0.12200,0.00300,-0.12500,0.12800,0.55900,-0.05700,-0.21300,-0.26600,-0.14200
-0.05800,-0.14300,-0.08500,0.10000,0.01400,-0.11400,0.12100,0.55600,-0.02700,-0.15900,-0.20200,-0.11700
-0.06100,-0.15200,-0.09100,0.10700,0.01500,-0.12100,0.13800,0.58900,0.02000,-0.14700,-0.22200,-0.13600
-0.05600,-0.13100,-0.07500,0.09400,0.01000,-0.10300,0.14000,0.60000,0.06100,-0.09000,-0.18200,-0.11400
-0.06000,-0.13600,-0.07600,0.09800,0.00800,-0.10600,0.13900,0.61300,0.08000,-0.09200,-0.18900,-0.12400
-0.05600,-0.12000,-0.06300,0.08800,0.00300,-0.09100,0.14100,0.64100,0.11500,-0.04600,-0.16100,-0.11200
-0.05500,-0.11700,-0.06200,0.08600,0.00400,-0.08900,0.13800,0.65800,0.14200,-0.02000,-0.15000,-0.11100
-0.04100,-0.10600,-0.06500,0.07400,0.01200,-0.08500,0.14200,0.70100,0.19800,0.02500,-0.11700,-0.09600
-0.03700,-0.09900,-0.06200,0.06900,0.01200,-0.08000,0.14300,0.72700,0.24500,0.06500,-0.08600,-0.08400
-0.03600,-0.09200,-0.05600,0.06400,0.01100,-0.07400,0.15000,0.77000,0.32100,0.13300,-0.05900,-0.07400
-0.02200,-0.07300,-0.05100,0.04800,0.01500,-0.06100,0.16300,0.82300,0.40400,0.21000,-0.01700,-0.05100
-0.00900,-0.05400,-0.04500,0.03200,0.01800,-0.04900,0.17900,0.89300,0.50300,0.30400,0.03300,-0.02400
0.01300,-0.02800,-0.04000,0.00800,0.02700,-0.03400,0.18200,0.95200,0.59500,0.40500,0.09100,-0.00200
0.03600,0.00800,-0.02800,-0.02200,0.03200,-0.01000,0.17300,0.99600,0.66200,0.49400,0.14500,0.02100
0.05300,0.04300,-0.01100,-0.04800,0.03200,0.01600,0.16500,1.00700,0.68000,0.55300,0.19400,0.04700
0.05400,0.06100,0.00700,-0.05700,0.02300,0.03400,0.15600,0.98900,0.66800,0.56100,0.21300,0.06000
0.04500,0.06900,0.02400,-0.05700,0.01000,0.04600,0.13900,0.95200,0.62000,0.54300,0.20000,0.06000
0.03500,0.06600,0.03100,-0.05000,0.00200,0.04800,0.11500,0.88700,0.52700,0.47900,0.18400,0.05200
0.02800,0.05500,0.02600,-0.04200,0.00100,0.04000,0.09300,0.81000,0.40500,0.36800,0.14800,0.04400
0.02300,0.04400,0.02100,-0.03400,0.00100,0.03200,0.07200,0.72900,0.27100,0.23700,0.08800,0.02900
0.00200,0.01800,0.01600,-0.01000,-0.00700,0.01700,0.05400,0.66200,0.15600,0.12200,0.02900,0.00900
-0.01800,-0.00800,0.01000,0.01300,-0.01400,0.00100,0.04800,0.61300,0.06700,0.03000,-0.03100,-0.01400
-0.03100,-0.02700,0.00500,0.02900,-0.01800,-0.01100,0.04500,0.58200,0.00600,-0.04700,-0.08000,-0.03700
-0.04900,-0.04800,0.00100,0.04800,-0.02500,-0.02300,0.04200,0.56600,-0.03700,-0.09700,-0.11000,-0.05100
-0.05400,-0.05600,-0.00200,0.05500,-0.02600,-0.02800,0.03700,0.55400,-0.05700,-0.12400,-0.12600,-0.06300
-0.05000,-0.05500,-0.00500,0.05300,-0.02200,-0.03000,0.03500,0.55300,-0.07100,-0.13900,-0.14400,-0.06600
-0.05000,-0.05500,-0.00500,0.05300,-0.02200,-0.03000,0.04000,0.55500,-0.08400,-0.14300,-0.15100,-0.06400
-0.05000,-0.05500,-0.00500,0.05300,-0.02200,-0.03000,0.04000,0.55400,-0.08400,-0.14800,-0.15000,-0.06900
-0.05400,-0.05900,-0.00500,0.05700,-0.02400,-0.03200,0.04000,0.55500,-0.07900,-0.14900,-0.15600,-0.07100
-0.05500,-0.06000,-0.00500,0.05800,-0.02500,-0.03200,0.03900,0.55400,-0.07000,-0.14400,-0.16000,-0.07000
-0.05500,-0.06000,-0.00500,0.05800,-0.02500,-0.03200,0.04200,0.55700,-0.06200,-0.14000,-0.16800,-0.07000
-0.05500,-0.06000,-0.00500,0.05800,-0.02500,-0.03200,0.04900,0.56000,-0.05400,-0.13500,-0.16500,-0.07000
-0.05000,-0.06000,-0.00900,0.05500,-0.02100,-0.03500,0.04600,0.56000,-0.04800,-0.13100,-0.15700,-0.07000
-0.04800,-0.06000,-0.01300,0.05400,-0.01800,-0.03600,0.04500,0.56400,-0.04300,-0.12500,-0.15200,-0.06800
-0.04400,-0.06000,-0.01600,0.05200,-0.01400,-0.03700,0.04500,0.56900,-0.03700,-0.11500,-0.14400,-0.06400
-0.04100,-0.06000,-0.02000,0.05000,-0.01000,-0.04000,0.04500,0.56700,-0.03400,-0.09700,-0.13500,-0.06200
-0.04200,-0.06000,-0.01800,0.05100,-0.01200,-0.03900,0.04500,0.55800,-0.02800,-0.08800,-0.12500,-0.05900
-0.04700,-0.06000,-0.01300,0.05400,-0.01700,-0.03600,0.04500,0.55100,-0.02600,-0.09100,-0.11500,-0.05600
-0.05000,-0.06000,-0.01000,0.05500,-0.02000,-0.03500,0.04500,0.54200,-0.02900,-0.09000,-0.11300,-0.05400
-0.05000,-0.05700,-0.00600,0.05400,-0.02200,-0.03100,0.04500,0.53500,-0.03400,-0.09100,-0.11600,-0.05100
-0.05200,-0.05400,-0.00300,0.05300,-0.02400,-0.02800,0.04500,0.53000,-0.04700,-0.09100,-0.12000,-0.04900
-0.05200,-0.05100,0.00100,0.05100,-0.02600,-0.02500,0.04500,0.52400,-0.04800,-0.09000,-0.12000,-0.04600
-0.05900,-0.04800,0.01100,0.05300,-0.03500,-0.01900,0.04500,0.52100,-0.03800,-0.08200,-0.11100,-0.04300
-0.05400,-0.02400,0.03100,0.03900,-0.04200,0.00300,0.04000,0.51600,-0.03300,-0.07600,-0.10300,-0.04000
-0.03200,0.01400,0.04500,0.00900,-0.03800,0.02900,0.03800,0.51200,-0.02500,-0.06900,-0.09400,-0.03800
-0.02400,0.05600,0.08000,-0.01600,-0.05200,0.06800,0.02800,0.50200,-0.02500,-0.06300,-0.08800,-0.03000
-0.01700,0.10800,0.12500,-0.04600,-0.07100,0.11600,0.00500,0.47100,-0.02400,-0.05600,-0.07900,-0.02400
-0.00700,0.11500,0.12200,-0.05500,-0.06400,0.11800,-0.03200,0.43400,-0.02800,-0.05300,-0.07400,-0.01800
0.00400,0.09200,0.08800,-0.04800,-0.04200,0.09000,-0.06000,0.40300,-0.07700,-0.09100,-0.08700,-0.01000
0.00900,0.06300,0.05400,-0.03600,-0.02300,0.05800,-0.04700,0.39700,-0.09600,-0.11100,-0.09200,-0.00700
-0.01300,0.03000,0.04300,-0.00900,-0.02800,0.03600,-0.03300,0.39300,-0.08400,-0.09300,-0.08000,0.00200
-0.03600,-0.01100,0.02500,0.02300,-0.03000,0.00700,-0.01900,0.38700,-0.10000,-0.10800,-0.10500,-0.02600
-0.04300,-0.05400,-0.01100,0.04900,-0.01600,-0.03200,0.00400,0.38600,-0.11500,-0.13000,-0.14300,-0.05900
-0.06100,-0.09600,-0.03500,0.07900,-0.01300,-0.06600,0.02000,0.37500,-0.14100,-0.16000,-0.16400,-0.07700
-0.06600,-0.10600,-0.04000,0.08600,-0.01300,-0.07300,0.03500,0.39200,-0.10800,-0.14000,-0.15700,-0.08700
-0.07500,-0.12800,-0.05300,0.10200,-0.01100,-0.09100,0.04000,0.38600,-0.12600,-0.15100,-0.16000,-0.08700
-0.09400,-0.14000,-0.04600,0.11700,-0.02400,-0.09300,0.05800,0.40400,-0.09000,-0.13900,-0.16200,-0.09600
-0.09400,-0.14500,-0.05100,0.12000,-0.02200,-0.09800,0.09600,0.42700,-0.05100,-0.13600,-0.19900,-0.12000
-0.09700,-0.20000,-0.10300,0.14900,0.00300,-0.15100,0.15300,0.53500,0.11400,0.00800,-0.16500,-0.13900
0.16000,0.00500,-0.15500,-0.08200,0.15800,-0.07500,-0.01700,0.57600,0.57100,0.89400,0.65500,0.35000
0.60600,0.42900,-0.17700,-0.51700,0.39200,0.12600,-0.52800,0.12900,0.39600,1.83000,2.04300,1.29400
0.82700,0.74000,-0.08800,-0.78300,0.45700,0.32600,-0.99900,-0.56300,-0.42100,1.96100,2.81500,1.89600
0.57400,0.49400,-0.08000,-0.53300,0.32700,0.20600,-1.01800,-0.99300,-1.37200,0.50100,1.61700,1.34400
0.10700,0.07500,-0.03200,-0.09100,0.06900,0.02100,-0.59700,-0.70700,-1.55100,-1.07700,-0.26900,0.19700
-0.04800,0.04800,0.09500,0.00000,-0.07200,0.07100,-0.23800,-0.13800,-0.83200,-0.83400,-0.51600,-0.13200
-0.07700,-0.08200,-0.00500,0.08000,-0.03500,-0.04400,-0.01400,0.21800,-0.31200,-0.35000,-0.29600,-0.12500
-0.08300,-0.16600,-0.08300,0.12500,0.00000,-0.12500,0.13000,0.42100,-0.04000,-0.18800,-0.26600,-0.16700
-0.06000,-0.13500,-0.07500,0.09800,0.00700,-0.10500,0.12800,0.41900,0.01400,-0.10100,-0.18900,-0.12900
-0.07500,-0.15000,-0.07500,0.11300,0.00000,-0.11300,0.14100,0.41800,0.03200,-0.10500,-0.21600,-0.15100
-0.06300,-0.12900,-0.06600,0.09600,0.00200,-0.09700,0.14600,0.42400,0.07700,-0.04400,-0.17900,-0.13000
-0.06900,-0.13400,-0.06500,0.10200,-0.00200,-0.09900,0.14400,0.41500,0.08500,-0.04200,-0.18600,-0.13700
-0.06400,-0.12300,-0.05900,0.09400,-0.00200,-0.09000,0.14600,0.43100,0.13300,0.00100,-0.16100,-0.12500
-0.05300,-0.11800,-0.06500,0.08600,0.00600,-0.09200,0.14400,0.45000,0.16000,0.02600,-0.14300,-0.11600
-0.05000,-0.10900,-0.05900,0.08000,0.00500,-0.08400,0.14500,0.47900,0.21200,0.07100,-0.11900,-0.11000
-0.04700,-0.10000,-0.05300,0.07300,0.00400,-0.07600,0.15600,0.50000,0.27200,0.12300,-0.08600,-0.09700
-0.04200,-0.09200,-0.05000,0.06700,0.00400,-0.07000,0.16700,0.52400,0.35100,0.18200,-0.06500,-0.09200
-0.03100,-0.07300,-0.04200,0.05200,0.00500,-0.05700,0.17400,0.55800,0.44700,0.26200,-0.02100,-0.07700
-0.01500,-0.05300,-0.03800,0.03400,0.01200,-0.04500,0.20000,0.61200,0.55200,0.35600,0.02600,-0.05400
0.00700,-0.02300,-0.03100,0.00800,0.01900,-0.02700,0.20300,0.66600,0.65400,0.46300,0.08000,-0.02200
0.02200,0.00900,-0.01300,-0.01500,0.01800,-0.00200,0.19200,0.71500,0.73000,0.55800,0.13800,-0.00300
0.02600,0.03400,0.00800,-0.03000,0.00900,0.02100,0.18600,0.72800,0.75300,0.62100,0.18800,0.00800
0.03600,0.06400,0.02700,-0.05000,0.00400,0.04600,0.17800,0.70000,0.73900,0.63600,0.22300,0.01300
0.03400,0.07600,0.04200,-0.05500,-0.00400,0.05900,0.16500,0.65900,0.68800,0.61100,0.22400,0.02000
0.01600,0.06500,0.04900,-0.04100,-0.01700,0.05700,0.14200,0.58400,0.58800,0.54700,0.19900,0.02800
0.01500,0.05800,0.04300,-0.03700,-0.01400,0.05000,0.10500,0.47800,0.45200,0.43900,0.15900,0.02400
0.01400,0.04800,0.03400,-0.03100,-0.01000,0.04000,0.07200,0.37900,0.30700,0.30900,0.10800,0.00900
-0.00100,0.02600,0.02600,-0.01300,-0.01400,0.02600,0.05600,0.29400,0.18200,0.19300,0.04400,-0.01500
-0.02100,-0.00200,0.01900,0.01100,-0.02000,0.00800,0.04000,0.22400,0.08400,0.08400,-0.02000,-0.03300
-0.03500,-0.02200,0.01300,0.02800,-0.02400,-0.00500,0.03500,0.17600,0.01500,0.00000,-0.06000,-0.05100
-0.04200,-0.03600,0.00600,0.03900,-0.02400,-0.01500,0.03300,0.14300,-0.03400,-0.04900,-0.09000,-0.06900
-0.04400,-0.04500,-0.00100,0.04400,-0.02100,-0.02200,0.02900,0.12600,-0.05900,-0.08400,-0.10700,-0.07400
-0.04400,-0.05200,-0.00800,0.04900,-0.01800,-0.03000,0.02700,0.12200,-0.07300,-0.09800,-0.11700,-0.08100
-0.04200,-0.05600,-0.01400,0.04900,-0.01400,-0.03500,0.02400,0.11900,-0.08100,-0.10200,-0.12000,-0.08500
-0.03600,-0.05400,-0.01900,0.04500,-0.00800,-0.03600,0.02500,0.11600,-0.08000,-0.10700,-0.12000,-0.08500
-0.03500,-0.05500,-0.02000,0.04500,-0.00700,-0.03700,0.02500,0.11100,-0.07900,-0.10500,-0.12300,-0.08100
-0.03500,-0.05500,-0.02000,0.04500,-0.00700,-0.03700,0.02500,0.11100,-0.07500,-0.10500,-0.12800,-0.08000
-0.03500,-0.05500,-0.02000,0.04500,-0.00700,-0.03700,0.02500,0.11500,-0.07500,-0.10300,-0.12900,-0.07900
-0.04000,-0.06000,-0.02000,0.05000,-0.01000,-0.04000,0.02500,0.11500,-0.07300,-0.09900,-0.12400,-0.08300
-0.04000,-0.06000,-0.02000,0.05000,-0.01000,-0.04000,0.02400,0.11500,-0.06600,-0.10100,-0.12600,-0.09100
-0.04100,-0.06100,-0.02000,0.05100,-0.01100,-0.04000,0.02000,0.11500,-0.05900,-0.09600,-0.12200,-0.09000
-0.04500,-0.06500,-0.02000,0.05500,-0.01200,-0.04200,0.02000,0.11500,-0.05300,-0.08900,-0.12000,-0.09000
-0.04500,-0.06500,-0.02000,0.05500,-0.01200,-0.04200,0.02000,0.11100,-0.04600,-0.08300,-0.12000,-0.09000
-0.04200,-0.06300,-0.02000,0.05200,-0.01100,-0.04100,0.02000,0.10400,-0.04100,-0.07600,-0.11700,-0.09000
-0.04000,-0.06000,-0.02000,0.05000,-0.01000,-0.04000,0.02000,0.10000,-0.04500,-0.06900,-0.11400,-0.09000
-0.04300,-0.06000,-0.01700,0.05200,-0.01300,-0.03800,0.02000,0.09400,-0.04900,-0.06600,-0.11100,-0.09000
-0.04800,-0.06000,-0.01200,0.05400,-0.01800,-0.03600,0.02000,0.08800,-0.05200,-0.07000,-0.10900,-0.09000
-0.05000,-0.06000,-0.01000,0.05500,-0.02000,-0.03500,0.02000,0.08300,-0.05800,-0.07500,-0.10400,-0.09000
-0.05500,-0.06000,-0.00500,0.05800,-0.02500,-0.03200,0.02100,0.08000,-0.06700,-0.08600,-0.11000,-0.09100
-0.05300,-0.05500,-0.00100,0.05400,-0.02600,-0.02800,0.02000,0.08000,-0.07400,-0.08700,-0.11500,-0.09000
-0.04600,-0.04500,0.00100,0.04500,-0.02300,-0.02200,0.02200,0.08100,-0.06500,-0.07500,-0.10600,-0.08300
-0.04600,-0.01800,0.02900,0.03200,-0.03700,0.00500,0.02700,0.08000,-0.05300,-0.06800,-0.09900,-0.07400
-0.03800,0.01100,0.04900,0.01300,-0.04400,0.03000,0.01800,0.08100,-0.04300,-0.05800,-0.09300,-0.06600
-0.02500,0.04900,0.07500,-0.01200,-0.05000,0.06200,-0.00200,0.07300,-0.03800,-0.05500,-0.08700,-0.05700
-0.01200,0.10400,0.11500,-0.04600,-0.06400,0.10900,-0.02800,0.05200,-0.03700,-0.05500,-0.08300,-0.05200
-0.00200,0.11100,0.11300,-0.05500,-0.05800,0.11200,-0.07200,0.01600,-0.04700,-0.05100,-0.07800,-0.04600
0.01600,0.08200,0.06600,-0.05000,-0.02500,0.07400,-0.09100,-0.02400,-0.10300,-0.08900,-0.07300,-0.04100
0.03000,0.05600,0.02600,-0.04300,0.00100,0.04100,-0.07900,-0.02200,-0.12200,-0.10400,-0.07100,-0.03600
0.01100,0.02200,0.01100,-0.01700,-0.00100,0.01700,-0.07000,-0.01800,-0.12100,-0.09000,-0.07400,-0.02800
-0.01900,-0.02500,-0.00600,0.02200,-0.00700,-0.01500,-0.04700,-0.01200,-0.12700,-0.11200,-0.09900,-0.05300
-0.04700,-0.06600,-0.02000,0.05700,-0.01300,-0.04300,-0.02900,-0.00500,-0.12500,-0.13300,-0.12500,-0.08200
-0.06900,-0.10800,-0.03900,0.08900,-0.01500,-0.07300,-0.01500,-0.00400,-0.15000,-0.16300,-0.15600,-0.10400
-0.06600,-0.11300,-0.04700,0.09000,-0.00900,-0.08000,0.00000,0.01000,-0.12300,-0.14600,-0.15200,-0.10400
-0.07500,-0.13100,-0.05700,0.10300,-0.00900,-0.09400,0.01200,0.01200,-0.14200,-0.16400,-0.16400,-0.10900
-0.08900,-0.13500,-0.04600,0.11200,-0.02100,-0.09000,0.02500,0.04000,-0.10300,-0.14800,-0.16200,-0.11400
-0.09800,-0.16300,-0.06500,0.13000,-0.01600,-0.11400,0.06800,0.05900,-0.08800,-0.17400,-0.21100,-0.15700
-0.08100,-0.19900,-0.11800,0.14000,0.01800,-0.15800,0.11100,0.19600,0.16100,0.08800,-0.08800,-0.12500
0.23500,0.07900,-0.15600,-0.15700,0.19500,-0.03800,-0.15500,0.16500,0.59600,1.11300,0.92200,0.50200
0.66800,0.51300,-0.15500,-0.59100,0.41100,0.17900,-0.69900,-0.36800,0.27800,2.03000,2.33000,1.45500
0.81400,0.73800,-0.07700,-0.77600,0.44500,0.33000,-1.12000,-1.05600,-0.62300,1.94000,2.84900,1.89500
0.52600,0.40100,-0.12500,-0.46300,0.32500,0.13800,-1.03500,-1.32300,-1.46200,0.25700,1.37400,1.18600
0.07700,0.03800,-0.04000,-0.05800,0.05800,-0.00100,-0.55900,-0.88500,-1.40900,-1.09100,-0.32900,0.13900
-0.06100,0.03200,0.09300,0.01400,-0.07700,0.06300,-0.24200,-0.37100,-0.71700,-0.71700,-0.40500,-0.11300
-0.07600,-0.10800,-0.03200,0.09200,-0.02100,-0.07000,-0.02300,-0.03200,-0.24800,-0.32100,-0.26200,-0.14500
-0.08800,-0.15900,-0.07100,0.12400,-0.00900,-0.11400,0.10400,0.15100,-0.02100,-0.16500,-0.22800,-0.16300
-0.08200,-0.13800,-0.05600,0.11000,-0.01200,-0.09700,0.09800,0.13700,0.00000,-0.10600,-0.17800,-0.13500
-0.08900,-0.15000,-0.06200,0.12000,-0.01300,-0.10500,0.12000,0.16300,0.04500,-0.09800,-0.20100,-0.15200
-0.08300,-0.13300,-0.05000,0.10800,-0.01600,-0.09100,0.11700,0.16400,0.07900,-0.04300,-0.16200,-0.13000
-0.08900,-0.14100,-0.05200,0.11500,-0.01800,-0.09600,0.12400,0.18300,0.10200,-0.03500,-0.17200,-0.13900
-0.07400,-0.12800,-0.05400,0.10100,-0.01000,-0.09100,0.13000,0.21300,0.14300,0.01200,-0.14500,-0.12500
-0.07200,-0.13100,-0.05900,0.10100,-0.00600,-0.09500,0.13300,0.23400,0.17800,0.03000,-0.13600,-0.12200
-0.07000,-0.11700,-0.04700,0.09400,-0.01100,-0.08200,0.13900,0.27500,0.24100,0.08100,-0.10600,-0.11400
-0.06500,-0.10600,-0.04000,0.08600,-0.01200,-0.07300,0.14100,0.30500,0.30300,0.13200,-0.07700,-0.10700
-0.06000,-0.09300,-0.03300,0.07700,-0.01300,-0.06200,0.15800,0.34200,0.39300,0.20100,-0.04700,-0.09800
-0.04900,-0.07300,-0.02400,0.06100,-0.01200,-0.04900,0.17200,0.39000,0.49200,0.28500,-0.00400,-0.07900
-0.03400,-0.05100,-0.01800,0.04300,-0.00700,-0.03400,0.19500,0.45200,0.60400,0.37900,0.04200,-0.06400
-0.01400,-0.02100,-0.00700,0.01800,-0.00400,-0.01400,0.21000,0.52000,0.70700,0.48200,0.09500,-0.04200
-0.00500,0.00600,0.01100,-0.00100,-0.00800,0.00800,0.20000,0.57400,0.78100,0.57600,0.15200,-0.02400
0.01100,0.04600,0.03500,-0.02900,-0.01200,0.04000,0.19000,0.57800,0.79700,0.63500,0.20300,-0.00300
0.01600,0.06900,0.05300,-0.04300,-0.01900,0.06100,0.17900,0.55800,0.76100,0.64200,0.21900,0.01700
0.01200,0.07200,0.06100,-0.04200,-0.02500,0.06600,0.15400,0.51200,0.70500,0.61500,0.21300,0.02700
0.00500,0.07400,0.06900,-0.03900,-0.03200,0.07100,0.12100,0.42600,0.60400,0.54500,0.20200,0.01800
-0.00300,0.06500,0.06900,-0.03100,-0.03600,0.06700,0.08800,0.32500,0.46300,0.43300,0.17100,0.00600
-0.00300,0.05400,0.05700,-0.02600,-0.03000,0.05500,0.05900,0.22100,0.31300,0.29500,0.11200,-0.00400
-0.01900,0.02900,0.04800,-0.00500,-0.03400,0.03800,0.04100,0.14000,0.18600,0.17000,0.05000,-0.02100
-0.03500,0.00200,0.03800,0.01600,-0.03700,0.02000,0.03500,0.07600,0.09100,0.06800,-0.00500,-0.04300
-0.04900,-0.01700,0.03200,0.03300,-0.04100,0.00800,0.03000,0.03500,0.01800,-0.00900,-0.04800,-0.06200
-0.06700,-0.03900,0.02800,0.05300,-0.04700,-0.00600,0.02400,0.01300,-0.02600,-0.06200,-0.08300,-0.07600
-0.07000,-0.04600,0.02300,0.05800,-0.04600,-0.01200,0.01900,-0.00800,-0.05300,-0.09400,-0.10800,-0.08800
-0.06700,-0.04700,0.02000,0.05700,-0.04300,-0.01300,0.01300,-0.02500,-0.06800,-0.10800,-0.11600,-0.09000
-0.06500,-0.05200,0.01300,0.05800,-0.03900,-0.01900,0.01000,-0.03100,-0.07400,-0.11700,-0.12000,-0.09000
-0.06000,-0.04700,0.01300,0.05300,-0.03600,-0.01700,0.01000,-0.03000,-0.07600,-0.12000,-0.12400,-0.09000
-0.05800,-0.06000,-0.00200,0.05900,-0.02800,-0.03000,0.00800,-0.03000,-0.07500,-0.12000,-0.12500,-0.09000
-0.06400,-0.08100,-0.01700,0.07300,-0.02400,-0.04800,0.00400,-0.03000,-0.07600,-0.12000,-0.12500,-0.09000
-0.06500,-0.07500,-0.00900,0.07000,-0.02800,-0.04200,0.00500,-0.03000,-0.07500,-0.12000,-0.12500,-0.09000
-0.06500,-0.07000,-0.00600,0.06800,-0.02900,-0.03700,0.00800,-0.02700,-0.07600,-0.12000,-0.12500,-0.09000
-0.06500,-0.06700,-0.00200,0.06600,-0.03100,-0.03400,0.01300,-0.02200,-0.07200,-0.11700,-0.12400,-0.08600
-0.06500,-0.06100,0.00400,0.06300,-0.03400,-0.02800,0.01600,-0.01900,-0.06400,-0.10900,-0.11900,-0.08500
-0.06300,-0.05800,0.00500,0.06000,-0.03400,-0.02600,0.01900,-0.01600,-0.05600,-0.10300,-0.11600,-0.08500
-0.06000,-0.05500,0.00500,0.05700,-0.03200,-0.02500,0.02400,-0.01100,-0.05000,-0.09500,-0.11300,-0.08500
-0.06000,-0.05500,0.00500,0.05700,-0.03200,-0.02500,0.02400,-0.01100,-0.05000,-0.09200,-0.10800,-0.08500
-0.06000,-0.05500,0.00500,0.05700,-0.03200,-0.02500,0.01900,-0.01700,-0.05000,-0.09600,-0.10500,-0.08500
-0.06000,-0.05500,0.00500,0.05700,-0.03200,-0.02500,0.01400,-0.02100,-0.05000,-0.09400,-0.10500,-0.08500
-0.06000,-0.05600,0.00500,0.05700,-0.03200,-0.02600,0.01000,-0.02600,-0.05000,-0.09800,-0.10500,-0.08500
-0.06000,-0.05900,0.00100,0.06000,-0.03000,-0.02900,0.00500,-0.03000,-0.05200,-0.10000,-0.10500,-0.08500
-0.05900,-0.06000,-0.00100,0.06000,-0.02900,-0.03100,0.00000,-0.03500,-0.05900,-0.10000,-0.10500,-0.08500
-0.05800,-0.06300,-0.00500,0.06100,-0.02600,-0.03400,0.00400,-0.03800,-0.06700,-0.09900,-0.10400,-0.08500
-0.05900,-0.06600,-0.00700,0.06300,-0.02600,-0.03600,0.00500,-0.04300,-0.07600,-0.10200,-0.10700,-0.08100
-0.05100,-0.06200,-0.01100,0.05600,-0.01900,-0.03700,0.00500,-0.04400,-0.08300,-0.11200,-0.11000,-0.08000
-0.05400,-0.06000,-0.00600,0.05700,-0.02400,-0.03300,0.01000,-0.03800,-0.08800,-0.11100,-0.10300,-0.08100
-0.06600,-0.06000,0.00600,0.06300,-0.03600,-0.02700,0.01100,-0.03600,-0.08200,-0.10400,-0.09800,-0.07600
-0.04900,-0.03200,0.01700,0.04100,-0.03200,-0.00800,0.00900,-0.03100,-0.06700,-0.09800,-0.09300,-0.07600
-0.03700,0.01100,0.04800,0.01300,-0.04200,0.02900,0.00200,-0.02900,-0.05800,-0.09200,-0.08600,-0.07400
-0.03400,0.03000,0.06500,0.00200,-0.05000,0.04700,-0.00300,-0.02400,-0.03600,-0.08700,-0.08100,-0.06600
-0.02800,0.06600,0.09400,-0.01900,-0.06100,0.08000,-0.01700,-0.03000,-0.02900,-0.08500,-0.07600,-0.05800
-0.01200,0.10700,0.11900,-0.04800,-0.06600,0.11300,-0.04900,-0.05800,-0.03400,-0.08200,-0.07500,-0.05100
0.00100,0.09900,0.09800,-0.05000,-0.04900,0.09800,-0.08200,-0.08500,-0.05500,-0.08000,-0.07000,-0.04800
0.01200,0.06300,0.05100,-0.03800,-0.02000,0.05700,-0.09600,-0.11300,-0.11700,-0.10900,-0.06900,-0.04300
0.02900,0.04300,0.01400,-0.03600,0.00700,0.02800,-0.07700,-0.11200,-0.12500,-0.11100,-0.06500,-0.04100
0.00900,0.01700,0.00700,-0.01300,0.00100,0.01200,-0.05800,-0.10700,-0.12900,-0.10800,-0.06500,-0.03700
-0.02600,-0.02800,-0.00200,0.02700,-0.01200,-0.01500,-0.04000,-0.10000,-0.13000,-0.13300,-0.10000,-0.05500
-0.05600,-0.06900,-0.01400,0.06300,-0.02100,-0.04100,-0.02500,-0.09600,-0.13300,-0.15700,-0.13300,-0.08600
-0.06900,-0.10000,-0.03000,0.08500,-0.01900,-0.06500,-0.01200,-0.09000,-0.14400,-0.17300,-0.15100,-0.10300
-0.06300,-0.10100,-0.03700,0.08200,-0.01300,-0.06900,-0.00200,-0.08100,-0.12200,-0.15300,-0.13700,-0.09900
-0.07700,-0.12600,-0.05000,0.10200,-0.01300,-0.08800,0.00500,-0.07700,-0.13900,-0.18000,-0.15700,-0.10800
-0.07600,-0.11500,-0.03900,0.09600,-0.01800,-0.07700,0.02600,-0.05200,-0.09300,-0.14700,-0.15200,-0.11500
-0.10600,-0.16700,-0.06200,0.13700,-0.02200,-0.11400,0.07400,-0.00700,-0.06300,-0.17000,-0.22100,-0.17900
-0.03200,-0.15300,-0.12100,0.09300,0.04500,-0.13700,0.07000,0.13900,0.27900,0.27100,0.06800,-0.03600
0.35400,0.16600,-0.18700,-0.26000,0.27000,-0.01000,-0.26900,-0.00900,0.55200,1.31100,1.23700,0.72400
0.75300,0.56100,-0.19100,-0.65700,0.47200,0.18500,-0.81700,-0.62400,0.03300,1.98900,2.53400,1.63600
0.79800,0.66900,-0.12900,-0.73300,0.46300,0.27000,-1.14300,-1.27300,-0.89900,1.49900,2.57700,1.81900
0.42300,0.26500,-0.15800,-0.34400,0.29000,0.05300,-0.93200,-1.36500,-1.57500,-0.33100,0.76500,0.86700
0.04300,0.04200,-0.00100,-0.04200,0.02200,0.02000,-0.46500,-0.83900,-1.26000,-1.14100,-0.49800,-0.00100
-0.05400,0.02600,0.08000,0.01400,-0.06800,0.05300,-0.19200,-0.37000,-0.57500,-0.58400,-0.34000,-0.10800
-0.06400,-0.13300,-0.06900,0.09900,0.00200,-0.10100,0.01800,-0.07300,-0.18000,-0.29300,-0.26600,-0.15800
-0.06600,-0.14000,-0.07300,0.10400,0.00400,-0.10600,0.09300,0.03700,-0.01700,-0.14200,-0.20900,-0.15200
-0.07200,-0.14000,-0.06900,0.10600,-0.00100,-0.10500,0.08900,0.04200,-0.00600,-0.12900,-0.20200,-0.14700
-0.07000,-0.13900,-0.06900,0.10500,0.00000,-0.10400,0.10900,0.08600,0.04900,-0.10100,-0.19700,-0.15300
-0.07100,-0.13000,-0.05900,0.10100,-0.00600,-0.09500,0.10600,0.08200,0.06700,-0.06500,-0.16800,-0.13900
-0.06900,-0.13300,-0.06400,0.10100,-0.00300,-0.09800,0.12700,0.09700,0.10600,-0.04400,-0.17300,-0.14700
-0.06000,-0.12300,-0.06300,0.09200,0.00200,-0.09300,0.12600,0.11500,0.14000,0.00900,-0.14500,-0.13600
-0.06200,-0.12400,-0.06200,0.09300,0.00000,-0.09300,0.13000,0.15000,0.18000,0.02900,-0.14000,-0.13900
-0.05100,-0.10400,-0.05300,0.07800,0.00100,-0.07900,0.13300,0.18300,0.23900,0.07400,-0.10500,-0.12300
-0.04400,-0.09500,-0.05000,0.07000,0.00300,-0.07200,0.14500,0.21500,0.30200,0.12400,-0.08600,-0.11600
-0.03400,-0.07700,-0.04300,0.05600,0.00400,-0.06000,0.16200,0.25700,0.38900,0.19700,-0.04400,-0.10400
-0.02000,-0.05900,-0.03900,0.04000,0.01000,-0.04900,0.17300,0.30400,0.48600,0.27800,-0.00500,-0.08200
-0.00900,-0.03300,-0.02500,0.02100,0.00800,-0.02900,0.19600,0.36600,0.59100,0.37100,0.03500,-0.06400
0.00700,-0.00600,-0.01200,0.00000,0.01000,-0.00900,0.19600,0.43000,0.68800,0.46600,0.09500,-0.04800
0.02000,0.02700,0.00700,-0.02400,0.00600,0.01700,0.18400,0.48100,0.74700,0.55100,0.14400,-0.02600
0.03500,0.06600,0.03200,-0.05100,0.00100,0.04900,0.17600,0.48600,0.75000,0.59700,0.19000,-0.00200
0.03500,0.07900,0.04400,-0.05700,-0.00500,0.06100,0.16400,0.47000,0.73100,0.59500,0.20000,0.01400
0.03700,0.08400,0.04700,-0.06100,-0.00600,0.06600,0.15000,0.42100,0.66800,0.56400,0.19200,0.01600
0.04600,0.08900,0.04300,-0.06800,0.00100,0.06600,0.11900,0.32800,0.55400,0.48900,0.18100,0.00900
0.02600,0.08300,0.05700,-0.05500,-0.01600,0.07000,0.08300,0.23000,0.41700,0.38000,0.14000,0.00500
0.00900,0.06200,0.05300,-0.03600,-0.02200,0.05700,0.05200,0.13400,0.28000,0.25400,0.08800,-0.00300
0.00200,0.03400,0.03200,-0.01800,-0.01500,0.03300,0.03000,0.05600,0.16000,0.13400,0.02900,-0.02200
-0.01200,0.01200,0.02400,0.00000,-0.01800,0.01800,0.02500,-0.00600,0.06900,0.04000,-0.02200,-0.04300
-0.02000,-0.00500,0.01500,0.01200,-0.01800,0.00500,0.02000,-0.05100,0.00800,-0.03000,-0.05900,-0.06200
-0.02200,-0.01300,0.00900,0.01700,-0.01500,-0.00200,0.01400,-0.08000,-0.03500,-0.08000,-0.09400,-0.07700
-0.02000,-0.01900,0.00100,0.02000,-0.01100,-0.00900,0.00800,-0.09600,-0.06100,-0.11100,-0.11100,-0.08000
-0.02000,-0.02700,-0.00700,0.02400,-0.00600,-0.01700,0.00500,-0.10000,-0.07400,-0.11800,-0.11600,-0.08300
-0.02700,-0.03500,-0.00700,0.03100,-0.01000,-0.02100,0.00500,-0.10100,-0.07900,-0.12400,-0.12300,-0.08600
-0.03300,-0.03800,-0.00500,0.03600,-0.01400,-0.02100,0.00500,-0.09800,-0.07800,-0.12900,-0.12600,-0.08500
-0.03000,-0.03500,-0.00500,0.03300,-0.01200,-0.02000,0.00500,-0.10200,-0.07300,-0.12500,-0.12900,-0.08500
-0.03100,-0.03200,-0.00200,0.03200,-0.01400,-0.01700,0.00500,-0.11100,-0.07000,-0.12300,-0.12900,-0.08500
-0.03100,-0.03000,0.00100,0.03000,-0.01600,-0.01400,0.00500,-0.10700,-0.06700,-0.12000,-0.12500,-0.08500
-0.02600,-0.02600,-0.00100,0.02600,-0.01200,-0.01300,0.00500,-0.10300,-0.06200,-0.11700,-0.12300,-0.08500
-0.02000,-0.02500,-0.00400,0.02300,-0.00700,-0.01400,0.00500,-0.10000,-0.06000,-0.11500,-0.12000,-0.08200
-0.02300,-0.02900,-0.00500,0.02700,-0.00900,-0.01700,0.00500,-0.09600,-0.05600,-0.11100,-0.11700,-0.08000
-0.02600,-0.03100,-0.00500,0.02900,-0.01000,-0.01700,0.00500,-0.09300,-0.05000,-0.10500,-0.11500,-0.08000
-0.02500,-0.03000,-0.00500,0.02800,-0.01000,-0.01700,0.00500,-0.09000,-0.04600,-0.09700,-0.11500,-0.08000
-0.02500,-0.03100,-0.00500,0.02800,-0.01000,-0.01700,0.00400,-0.09000,-0.04100,-0.09200,-0.11500,-0.08000
-0.02700,-0.02900,-0.00200,0.02800,-0.01200,-0.01600,0.00000,-0.09000,-0.03600,-0.08300,-0.11500,-0.08000
-0.03200,-0.03200,0.00000,0.03200,-0.01600,-0.01500,0.00100,-0.08900,-0.03700,-0.08400,-0.11500,-0.08000
-0.03500,-0.03500,0.00000,0.03500,-0.01700,-0.01700,-0.00300,-0.09100,-0.04100,-0.10000,-0.11400,-0.08000
-0.03800,-0.03500,0.00300,0.03600,-0.02000,-0.01600,-0.00500,-0.09300,-0.04700,-0.10000,-0.11700,-0.08000
-0.04100,-0.03500,0.00600,0.03700,-0.02300,-0.01500,-0.00500,-0.10000,-0.05800,-0.10000,-0.11900,-0.08000
-0.03900,-0.03500,0.00400,0.03700,-0.02100,-0.01500,-0.00900,-0.11100,-0.06400,-0.10200,-0.12300,-0.07900
-0.03600,-0.03500,0.00100,0.03600,-0.01800,-0.01700,-0.01000,-0.11600,-0.06800,-0.10700,-0.12500,-0.08300
-0.03000,-0.03100,-0.00100,0.03100,-0.01500,-0.01600,-0.01000,-0.12200,-0.08300,-0.12600,-0.13000,-0.08400
-0.02500,-0.02500,0.00100,0.02500,-0.01300,-0.01200,-0.01000,-0.12900,-0.09200,-0.13400,-0.13600,-0.09100
-0.02000,-0.02000,0.00000,0.02000,-0.01000,-0.01000,-0.01000,-0.12900,-0.09500,-0.13600,-0.13500,-0.09500
-0.01400,-0.01400,0.00000,0.01400,-0.00700,-0.00700,-0.00800,-0.12400,-0.10000,-0.14300,-0.13600,-0.08900
-0.01400,-0.00900,0.00500,0.01100,-0.00900,-0.00200,-0.00500,-0.11800,-0.09300,-0.14000,-0.13100,-0.08500
-0.03200,-0.00300,0.02900,0.01800,-0.03100,0.01300,-0.00400,-0.11400,-0.07700,-0.12000,-0.12200,-0.08000
-0.04100,0.01700,0.05900,0.01200,-0.05000,0.03800,-0.00100,-0.11100,-0.06600,-0.11700,-0.11600,-0.07500
-0.02300,0.04300,0.06600,-0.01000,-0.04500,0.05400,0.00200,-0.10400,-0.05000,-0.10400,-0.10900,-0.07100
-0.01000,0.08300,0.09300,-0.03600,-0.05200,0.08800,-0.01300,-0.11200,-0.04500,-0.07900,-0.10200,-0.05900
0.00800,0.12900,0.12200,-0.06900,-0.05700,0.12500,-0.04200,-0.13600,-0.04400,-0.07200,-0.09600,-0.05000
0.01600,0.12500,0.10800,-0.07100,-0.04600,0.11600,-0.08600,-0.16300,-0.05000,-0.07400,-0.08900,-0.04500
0.02600,0.09100,0.06400,-0.05900,-0.01900,0.07700,-0.10700,-0.19700,-0.10300,-0.11800,-0.08200,-0.04100
0.03900,0.06800,0.02900,-0.05400,0.00500,0.04800,-0.09400,-0.19200,-0.11200,-0.11800,-0.07700,-0.04000
0.02100,0.04400,0.02300,-0.03300,-0.00100,0.03300,-0.08500,-0.19100,-0.10200,-0.10600,-0.07700,-0.03100
-0.00300,0.01000,0.01200,-0.00400,-0.00700,0.01100,-0.05900,-0.18600,-0.12000,-0.14000,-0.11200,-0.05000
-0.02100,-0.03000,-0.00800,0.02600,-0.00600,-0.01900,-0.03900,-0.18200,-0.13800,-0.16300,-0.14500,-0.08700
-0.03900,-0.07100,-0.03300,0.05500,-0.00300,-0.05100,-0.02500,-0.18200,-0.15700,-0.19400,-0.17200,-0.11100
-0.04600,-0.07300,-0.02600,0.05900,-0.01000,-0.04900,-0.01200,-0.16600,-0.12900,-0.16800,-0.15800,-0.10700
-0.05800,-0.09200,-0.03400,0.07500,-0.01100,-0.06300,-0.00300,-0.16800,-0.14500,-0.18800,-0.16600,-0.11300
-0.06300,-0.08800,-0.02600,0.07500,-0.01800,-0.05700,0.02200,-0.12400,-0.09900,-0.15400,-0.16000,-0.12000
-0.08600,-0.12100,-0.03500,0.10300,-0.02600,-0.07800,0.06500,-0.10200,-0.05700,-0.16100,-0.21600,-0.16800
-0.04800,-0.13800,-0.09000,0.09400,0.02100,-0.11400,0.09200,0.04300,0.22800,0.17000,-0.01700,-0.08600
0.29500,0.12400,-0.17100,-0.20900,0.23300,-0.02400,-0.18600,-0.00100,0.55700,1.13500,1.03500,0.59700
0.73600,0.50400,-0.23200,-0.62000,0.48400,0.13600,-0.72800,-0.57700,0.13400,1.81900,2.33900,1.54800
0.83500,0.67300,-0.16200,-0.75400,0.49800,0.25600,-1.10600,-1.27800,-0.79700,1.46500,2.55300,1.84500
0.47000,0.32300,-0.14700,-0.39600,0.30800,0.08800,-0.98100,-1.51600,-1.59900,-0.27700,0.85200,0.94700
0.06100,0.06800,0.00700,-0.06500,0.02700,0.03700,-0.53600,-1.04100,-1.38900,-1.22400,-0.53300,0.01900
-0.03400,0.08400,0.11700,-0.02600,-0.07500,0.10000,-0.23300,-0.50900,-0.66200,-0.66000,-0.39600,-0.11400
-0.05300,-0.08300,-0.03000,0.06800,-0.01100,-0.05600,-0.01200,-0.17800,-0.23600,-0.32200,-0.28900,-0.15900
-0.06600,-0.11400,-0.04800,0.09000,-0.00900,-0.08000,0.09400,-0.04400,-0.02200,-0.15300,-0.22400,-0.15800
-0.05300,-0.10300,-0.05100,0.07800,-0.00100,-0.07700,0.08800,-0.05000,-0.01600,-0.12000,-0.19200,-0.14800
-0.06300,-0.12000,-0.05700,0.09200,-0.00300,-0.08900,0.10900,0.00700,0.03600,-0.10800,-0.20000,-0.15700
-0.06900,-0.11200,-0.04300,0.09100,-0.01300,-0.07800,0.11300,0.00700,0.06800,-0.06700,-0.16500,-0.14400
-0.06500,-0.11200,-0.04800,0.08900,-0.00800,-0.08000,0.11700,0.01600,0.08400,-0.05800,-0.16800,-0.15300
-0.05800,-0.09400,-0.03500,0.07600,-0.01100,-0.06400,0.11400,0.03700,0.12100,-0.00500,-0.14000,-0.13300
-0.05200,-0.08900,-0.03700,0.07100,-0.00700,-0.06300,0.11900,0.06700,0.15800,0.01900,-0.14000,-0.13000
-0.04200,-0.07000,-0.02800,0.05600,-0.00700,-0.04900,0.12800,0.10400,0.21500,0.06700,-0.10500,-0.11600
-0.03600,-0.05900,-0.02300,0.04700,-0.00600,-0.04100,0.13700,0.13500,0.27100,0.11300,-0.08100,-0.10800
-0.03000,-0.04600,-0.01600,0.03800,-0.00600,-0.03100,0.14700,0.17400,0.35000,0.18000,-0.04700,-0.09800
-0.02000,-0.02800,-0.00800,0.02400,-0.00500,-0.01800,0.16200,0.21300,0.43700,0.25500,-0.00200,-0.08600
0.00300,-0.00100,-0.00400,0.00000,0.00300,-0.00200,0.18300,0.27100,0.54200,0.34700,0.03700,-0.06900
0.02600,0.03100,0.00500,-0.02900,0.01000,0.01800,0.19700,0.33300,0.63600,0.44300,0.08700,-0.04600
0.03700,0.05700,0.02000,-0.04700,0.00800,0.03800,0.20100,0.38200,0.70300,0.52600,0.14300,-0.02000
0.04600,0.08300,0.03800,-0.06500,0.00400,0.06000,0.19700,0.39700,0.72000,0.57700,0.18800,0.01000
0.06400,0.11000,0.04600,-0.08700,0.00900,0.07700,0.18900,0.38600,0.69300,0.57900,0.20200,0.01500
0.05700,0.11800,0.06000,-0.08700,-0.00200,0.08900,0.16400,0.34300,0.64200,0.55100,0.19200,0.00600
0.03800,0.12600,0.08800,-0.08200,-0.02500,0.10700,0.13500,0.26200,0.54500,0.48900,0.17700,0.00100
0.03200,0.12300,0.09100,-0.07800,-0.03000,0.10700,0.10500,0.17000,0.42200,0.38900,0.14000,-0.00600
0.02100,0.09400,0.07300,-0.05800,-0.02600,0.08300,0.07000,0.07700,0.29300,0.26500,0.08700,-0.01300
0.01300,0.07200,0.05900,-0.04300,-0.02300,0.06500,0.05300,-0.00500,0.17400,0.14700,0.03600,-0.01700
-0.00300,0.04800,0.05100,-0.02300,-0.02800,0.05000,0.04800,-0.06500,0.08500,0.05800,-0.01300,-0.03100
-0.01400,0.02800,0.04300,-0.00700,-0.02900,0.03500,0.04100,-0.10800,0.01500,-0.01400,-0.05500,-0.05200
-0.01100,0.02100,0.03200,-0.00500,-0.02200,0.02700,0.03400,-0.13600,-0.03200,-0.06400,-0.08300,-0.06600
-0.01700,0.01600,0.03300,0.00000,-0.02500,0.02500,0.02800,-0.15600,-0.05600,-0.09500,-0.10500,-0.07300
-0.02500,0.01100,0.03600,0.00600,-0.03000,0.02300,0.02200,-0.16600,-0.07100,-0.11300,-0.11700,-0.07800
-0.03000,0.00500,0.03500,0.01200,-0.03300,0.01900,0.02000,-0.16400,-0.08100,-0.11200,-0.11700,-0.08000
-0.03500,0.00000,0.03500,0.01700,-0.03500,0.01700,0.02000,-0.16500,-0.07900,-0.11000,-0.12300,-0.08000
-0.03500,0.00000,0.03500,0.01700,-0.03500,0.01700,0.02000,-0.16500,-0.07500,-0.11000,-0.12400,-0.08000
-0.03500,0.00000,0.03500,0.01700,-0.03500,0.01700,0.02000,-0.16500,-0.07300,-0.11000,-0.12000,-0.08000
-0.03500,0.00000,0.03500,0.01700,-0.03500,0.01700,0.02000,-0.16500,-0.07000,-0.11000,-0.11800,-0.08000
-0.03500,0.00000,0.03500,0.01700,-0.03500,0.01700,0.02500,-0.15900,-0.06700,-0.11000,-0.11400,-0.08000
-0.03600,-0.00100,0.03500,0.01800,-0.03500,0.01700,0.02500,-0.15400,-0.05500,-0.10300,-0.11200,-0.07700
-0.03200,0.00300,0.03500,0.01400,-0.03400,0.01900,0.02600,-0.14900,-0.04200,-0.09200,-0.11000,-0.07400
-0.03000,0.00500,0.03500,0.01200,-0.03300,0.02000,0.03000,-0.14300,-0.03500,-0.08300,-0.10700,-0.07100
-0.02600,0.00500,0.03100,0.01100,-0.02900,0.01800,0.03000,-0.13700,-0.03400,-0.07700,-0.10100,-0.06900
-0.02100,0.00800,0.03000,0.00700,-0.02600,0.01900,0.02800,-0.13700,-0.03000,-0.07300,-0.09600,-0.06500
-0.01900,0.01100,0.03000,0.00400,-0.02500,0.02000,0.02500,-0.14100,-0.02800,-0.06800,-0.09300,-0.06600
-0.02100,0.00900,0.03000,0.00600,-0.02500,0.01900,0.02500,-0.14300,-0.02400,-0.06400,-0.08700,-0.07000
-0.02400,0.00600,0.03000,0.00900,-0.02800,0.01700,0.02500,-0.14600,-0.02700,-0.05900,-0.08600,-0.07000
-0.02500,0.00500,0.03000,0.01000,-0.02800,0.01700,0.02500,-0.14400,-0.04200,-0.06800,-0.09200,-0.07400
-0.02600,0.00500,0.03000,0.01000,-0.02800,0.01700,0.02500,-0.15100,-0.04700,-0.07500,-0.10100,-0.07500
-0.02400,0.00600,0.02900,0.00900,-0.02700,0.01700,0.02500,-0.16600,-0.05900,-0.08200,-0.10800,-0.07800
-0.03100,0.00400,0.03500,0.01400,-0.03400,0.01900,0.02500,-0.17100,-0.06600,-0.10100,-0.11200,-0.08300
-0.03200,0.00900,0.04000,0.01200,-0.03600,0.02400,0.02500,-0.17400,-0.06900,-0.10900,-0.11700,-0.08300
-0.03100,0.00900,0.04100,0.01100,-0.03600,0.02500,0.02500,-0.17900,-0.07600,-0.11100,-0.11600,-0.08000
-0.03200,0.01200,0.04400,0.01000,-0.03900,0.02800,0.02500,-0.18000,-0.07900,-0.11700,-0.11300,-0.07800
-0.03100,0.01500,0.04600,0.00800,-0.03900,0.03000,0.02800,-0.17800,-0.07700,-0.12400,-0.11100,-0.07600
-0.03300,0.01500,0.04800,0.00900,-0.04100,0.03100,0.03100,-0.17400,-0.06500,-0.11600,-0.10600,-0.07200
-0.01900,0.05100,0.07000,-0.01600,-0.04500,0.06100,0.03000,-0.17100,-0.05900,-0.09800,-0.10500,-0.07000
-0.01100,0.07700,0.08800,-0.03300,-0.05000,0.08300,0.01900,-0.16900,-0.04300,-0.08800,-0.09900,-0.06400
-0.00200,0.10600,0.10700,-0.05200,-0.05500,0.10600,0.00500,-0.16300,-0.02300,-0.06600,-0.08400,-0.05000
0.00400,0.15200,0.14800,-0.07800,-0.07200,0.15000,-0.01200,-0.17400,-0.02700,-0.04600,-0.08000,-0.04200
0.03000,0.17700,0.14700,-0.10400,-0.05900,0.16200,-0.04900,-0.19500,-0.02600,-0.03600,-0.07800,-0.04500
0.05700,0.16000,0.10200,-0.10900,-0.02300,0.13100,-0.07100,-0.22700,-0.06000,-0.06300,-0.07300,-0.04500
0.05200,0.11100,0.05900,-0.08200,-0.00400,0.08500,-0.06300,-0.23700,-0.09200,-0.10000,-0.07400,-0.04500
0.04900,0.09400,0.04500,-0.07200,0.00200,0.06900,-0.05700,-0.22800,-0.07900,-0.09000,-0.06500,-0.04500
0.02100,0.05500,0.03300,-0.03800,-0.00600,0.04400,-0.03500,-0.23100,-0.09600,-0.10100,-0.08700,-0.04400
-0.00700,0.01600,0.02300,-0.00500,-0.01500,0.01900,-0.00800,-0.21900,-0.10700,-0.12000,-0.11600,-0.06200
-0.03200,-0.01900,0.01300,0.02500,-0.02200,-0.00300,0.00000,-0.22600,-0.13300,-0.16100,-0.15400,-0.09600
-0.05300,-0.04800,0.00500,0.05000,-0.02800,-0.02100,0.00800,-0.20900,-0.11300,-0.15000,-0.17000,-0.10000
-0.05700,-0.05800,-0.00200,0.05700,-0.02800,-0.03000,0.01400,-0.21700,-0.11900,-0.14700,-0.16800,-0.10000
-0.05200,-0.06700,-0.01500,0.05900,-0.01800,-0.04000,0.02800,-0.19400,-0.10700,-0.14800,-0.17400,-0.10800
-0.05700,-0.06400,-0.00700,0.06000,-0.02400,-0.03500,0.05800,-0.16100,-0.04800,-0.11500,-0.17700,-0.12300
-0.08800,-0.13000,-0.04200,0.10900,-0.02300,-0.08600,0.12400,-0.06700,0.07900,-0.02100,-0.17100,-0.16700
0.11700,-0.00100,-0.11700,-0.05800,0.11700,-0.05900,0.01500,0.07100,0.49600,0.71900,0.50700,0.24500
0.57700,0.34500,-0.23200,-0.46100,0.40400,0.05600,-0.44200,-0.28900,0.42800,1.57800,1.81600,1.17500
0.88200,0.65300,-0.22900,-0.76700,0.55500,0.21200,-0.93900,-1.00900,-0.33600,1.74400,2.66600,1.87400
0.67400,0.52900,-0.14400,-0.60100,0.40800,0.19200,-1.05900,-1.55700,-1.32400,0.45500,1.63400,1.41800
0.18200,0.16200,-0.02000,-0.17200,0.10100,0.07000,-0.70500,-1.38800,-1.63400,-1.12800,-0.24700,0.26600
-0.02400,0.13700,0.16100,-0.05700,-0.09200,0.14900,-0.32500,-0.77500,-0.95100,-0.95000,-0.53800,-0.11400
-0.03900,0.02800,0.06700,0.00500,-0.05300,0.04700,-0.07600,-0.35600,-0.36300,-0.40400,-0.29400,-0.11900
-0.05700,-0.09600,-0.03900,0.07600,-0.00800,-0.06700,0.09200,-0.11600,-0.07500,-0.20800,-0.26800,-0.16400
-0.05400,-0.06600,-0.01200,0.06000,-0.02100,-0.03800,0.10400,-0.07800,-0.00600,-0.10500,-0.18000,-0.12600
-0.05800,-0.07900,-0.02100,0.06900,-0.01900,-0.04900,0.11900,-0.05900,0.02100,-0.11100,-0.20600,-0.14800
-0.05300,-0.06100,-0.00800,0.05700,-0.02200,-0.03400,0.12600,-0.04200,0.07200,-0.04400,-0.16700,-0.12900
-0.05400,-0.06200,-0.00800,0.05900,-0.02300,-0.03500,0.12700,-0.03700,0.08300,-0.04700,-0.17000,-0.13700
-0.05300,-0.05500,-0.00200,0.05400,-0.02500,-0.02800,0.14700,-0.00700,0.13300,-0.00600,-0.14800,-0.12600
-0.04800,-0.04700,0.00100,0.04800,-0.02400,-0.02300,0.14500,0.00900,0.15800,0.01900,-0.13600,-0.11800
-0.04200,-0.04000,0.00200,0.04100,-0.02200,-0.01800,0.15000,0.04200,0.20900,0.06000,-0.12000,-0.11500
-0.03600,-0.02900,0.00700,0.03200,-0.02100,-0.01100,0.15300,0.07300,0.25800,0.10900,-0.08700,-0.10000
-0.03100,-0.02200,0.00800,0.02700,-0.01900,-0.00700,0.15700,0.11300,0.32600,0.16000,-0.06200,-0.09000
-0.01300,-0.00200,0.01100,0.00700,-0.01200,0.00400,0.17300,0.15500,0.41100,0.23800,-0.01700,-0.07200
0.00100,0.01700,0.01600,-0.00900,-0.00800,0.01600,0.19200,0.20500,0.50300,0.32000,0.02500,-0.05400
0.01100,0.03900,0.02800,-0.02500,-0.00900,0.03300,0.20500,0.27000,0.60400,0.41700,0.08000,-0.02800
0.03500,0.07100,0.03700,-0.05300,-0.00100,0.05400,0.20900,0.32400,0.68500,0.50500,0.13100,-0.00700
0.04400,0.09800,0.05400,-0.07100,-0.00500,0.07500,0.19700,0.36000,0.72600,0.57100,0.18000,0.02000
0.04800,0.12400,0.07700,-0.08700,-0.01500,0.10000,0.18600,0.36700,0.72000,0.58900,0.21000,0.04000
0.05200,0.13200,0.08000,-0.09200,-0.01500,0.10600,0.17500,0.33200,0.67700,0.57100,0.20200,0.04300
0.04700,0.12600,0.07900,-0.08600,-0.01600,0.10200,0.15800,0.27400,0.60200,0.52800,0.19100,0.03600
0.04000,0.14400,0.10400,-0.09200,-0.03300,0.12400,0.13300,0.18400,0.49100,0.44200,0.16700,0.02900
0.02400,0.13200,0.10800,-0.07800,-0.04200,0.12000,0.10300,0.08400,0.35700,0.32500,0.11400,0.02300
0.00900,0.09900,0.09000,-0.05400,-0.04100,0.09500,0.07400,-0.00200,0.23400,0.20700,0.06100,0.01300
-0.00700,0.07800,0.08500,-0.03600,-0.04600,0.08200,0.05600,-0.07200,0.13200,0.10300,0.01200,-0.00800
-0.01800,0.05900,0.07700,-0.02100,-0.04800,0.06800,0.05100,-0.12000,0.05800,0.03400,-0.03200,-0.02600
-0.02700,0.04400,0.07100,-0.00900,-0.04900,0.05700,0.04700,-0.15400,0.01200,-0.02000,-0.06800,-0.04200
-0.03000,0.03400,0.06400,-0.00200,-0.04800,0.04900,0.04200,-0.16900,-0.01700,-0.06200,-0.09100,-0.05600
-0.02500,0.03200,0.05700,-0.00400,-0.04100,0.04400,0.03800,-0.18100,-0.03600,-0.08000,-0.09800,-0.06400
-0.02600,0.02800,0.05500,-0.00100,-0.04100,0.04100,0.03300,-0.18300,-0.04800,-0.08800,-0.10700,-0.06500
-0.03100,0.02400,0.05500,0.00300,-0.04300,0.04000,0.03000,-0.17900,-0.04700,-0.08500,-0.11000,-0.06500
-0.03400,0.02100,0.05500,0.00600,-0.04500,0.03700,0.03000,-0.18100,-0.04100,-0.08500,-0.11100,-0.06500
-0.03800,0.01700,0.05500,0.01000,-0.04600,0.03600,0.02800,-0.17600,-0.03700,-0.08300,-0.11600,-0.06500
-0.04000,0.01500,0.05500,0.01200,-0.04800,0.03500,0.02400,-0.17500,-0.03200,-0.07900,-0.11400,-0.06300
-0.04000,0.01500,0.05500,0.01200,-0.04800,0.03500,0.02500,-0.17500,-0.02800,-0.08100,-0.10900,-0.06000
-0.04000,0.01500,0.05500,0.01200,-0.04800,0.03500,0.02900,-0.16900,-0.02400,-0.07500,-0.10200,-0.05700
-0.04000,0.01400,0.05500,0.01300,-0.04800,0.03500,0.03000,-0.16400,-0.01600,-0.06500,-0.09600,-0.05500
-0.03900,0.01600,0.05500,0.01100,-0.04800,0.03500,0.03200,-0.15900,-0.00700,-0.05500,-0.09000,-0.05100
-0.04100,0.01400,0.05500,0.01300,-0.04900,0.03400,0.03600,-0.15300,0.00200,-0.05000,-0.08200,-0.05000
-0.03700,0.01800,0.05500,0.00900,-0.04600,0.03600,0.03300,-0.14700,0.00200,-0.05000,-0.08200,-0.05000
-0.02900,0.02600,0.05500,0.00100,-0.04300,0.04000,0.03000,-0.14700,-0.00500,-0.05000,-0.08500,-0.05000
-0.03300,0.02100,0.05500,0.00500,-0.04400,0.03800,0.02700,-0.15000,-0.00800,-0.05000,-0.08500,-0.05000
-0.03700,0.01800,0.05500,0.00900,-0.04600,0.03600,0.02500,-0.15600,-0.01300,-0.05000,-0.08500,-0.05000
-0.04000,0.01500,0.05500,0.01200,-0.04800,0.03500,0.02200,-0.15900,-0.01800,-0.05400,-0.08500,-0.05000
-0.04500,0.01000,0.05500,0.01700,-0.05000,0.03200,0.01900,-0.16600,-0.02100,-0.06100,-0.09200,-0.05000
-0.04300,0.01200,0.05500,0.01500,-0.04900,0.03300,0.02400,-0.17800,-0.03000,-0.07400,-0.09500,-0.05000
-0.04000,0.01600,0.05500,0.01100,-0.04800,0.03600,0.02500,-0.18000,-0.04000,-0.08100,-0.09800,-0.05000
-0.04000,0.01500,0.05500,0.01200,-0.04800,0.03500,0.02400,-0.17900,-0.04900,-0.08800,-0.10200,-0.05900
-0.03700,0.01800,0.05500,0.00900,-0.04600,0.03700,0.02600,-0.18200,-0.04600,-0.08700,-0.09800,-0.05900
-0.03400,0.02100,0.05400,0.00600,-0.04400,0.03700,0.02400,-0.18900,-0.03700,-0.08200,-0.09700,-0.05200
-0.04100,0.01800,0.05900,0.01100,-0.05000,0.03800,0.02700,-0.18800,-0.02900,-0.07800,-0.09300,-0.05000
-0.04200,0.04500,0.08700,-0.00200,-0.06500,0.06600,0.03000,-0.18200,-0.02000,-0.07200,-0.09000,-0.04300
-0.03300,0.07300,0.10600,-0.02000,-0.07000,0.08900,0.02700,-0.18300,-0.01400,-0.06800,-0.08700,-0.04000
-0.02300,0.10200,0.12500,-0.04000,-0.07400,0.11300,0.01700,-0.17500,-0.00500,-0.04400,-0.07300,-0.03100
-0.01100,0.15200,0.16200,-0.07100,-0.08700,0.15700,-0.00900,-0.17700,0.00000,-0.03300,-0.06400,-0.01800
0.01000,0.17800,0.16800,-0.09400,-0.07900,0.17300,-0.04900,-0.19700,0.00900,-0.04100,-0.06300,-0.00800
0.02600,0.15800,0.13200,-0.09200,-0.05400,0.14500,-0.08200,-0.22700,-0.00700,-0.05300,-0.05700,0.00200
0.02300,0.11200,0.09000,-0.06800,-0.03400,0.10000,-0.08500,-0.25600,-0.05500,-0.08400,-0.05700,0.00700
0.02600,0.09900,0.07300,-0.06300,-0.02400,0.08600,-0.08600,-0.24500,-0.05300,-0.07100,-0.04700,0.01500
0.00800,0.07100,0.06400,-0.04000,-0.02800,0.06700,-0.07200,-0.24100,-0.05700,-0.07200,-0.05900,-0.00300
-0.01100,0.02900,0.04000,-0.00900,-0.02600,0.03400,-0.03700,-0.22800,-0.07100,-0.09700,-0.09700,-0.03600
-0.02100,-0.00700,0.01400,0.01400,-0.01700,0.00400,-0.02100,-0.22700,-0.09500,-0.12300,-0.12800,-0.06100
-0.05100,-0.04200,0.00800,0.04600,-0.02900,-0.01700,-0.00600,-0.21400,-0.08400,-0.12100,-0.13800,-0.07800
-0.05600,-0.04400,0.01200,0.05000,-0.03400,-0.01600,0.00700,-0.20800,-0.07300,-0.10700,-0.12900,-0.07100
-0.06200,-0.06100,0.00000,0.06100,-0.03100,-0.03000,0.02200,-0.20900,-0.08300,-0.12600,-0.14300,-0.08500
-0.06300,-0.05100,0.01100,0.05700,-0.03600,-0.02000,0.03900,-0.16200,-0.01300,-0.08600,-0.13500,-0.08500
-0.08800,-0.11200,-0.02400,0.10000,-0.03200,-0.06800,0.09900,-0.09400,0.07100,-0.04200,-0.17200,-0.13900
0.04900,-0.04500,-0.09400,-0.00200,0.07100,-0.06900,0.05700,0.06800,0.47000,0.55900,0.32500,0.13100
0.49200,0.27200,-0.22000,-0.38100,0.35600,0.02600,-0.34300,-0.16900,0.55400,1.44700,1.56000,1.00800
0.87200,0.60300,-0.26900,-0.73700,0.57000,0.16700,-0.87600,-0.87200,-0.12800,1.78500,2.61800,1.84200
0.76500,0.58600,-0.17900,-0.67500,0.47200,0.20300,-1.09200,-1.50200,-1.12300,0.78700,1.97500,1.63200
0.26300,0.20100,-0.06200,-0.23200,0.16300,0.06900,-0.81600,-1.51300,-1.66200,-0.95200,0.00700,0.45300
-0.00500,0.14300,0.14800,-0.07000,-0.07700,0.14600,-0.41500,-0.91300,-1.08700,-1.06500,-0.58300,-0.10100
-0.02800,0.08500,0.11300,-0.02800,-0.07100,0.09800,-0.14900,-0.43000,-0.42200,-0.44700,-0.29700,-0.08100
-0.05000,-0.08400,-0.03400,0.06700,-0.00800,-0.05800,0.04300,-0.16500,-0.08300,-0.21800,-0.26400,-0.14100
-0.03800,-0.05600,-0.01800,0.04700,-0.01000,-0.03600,0.09100,-0.09000,0.04300,-0.07600,-0.17800,-0.10200
-0.04400,-0.06700,-0.02300,0.05500,-0.01000,-0.04500,0.08900,-0.08100,0.04500,-0.09500,-0.19700,-0.11800
-0.03900,-0.05400,-0.01600,0.04700,-0.01100,-0.03500,0.10000,-0.04400,0.11300,-0.03700,-0.15500,-0.10500
-0.04000,-0.05200,-0.01200,0.04700,-0.01400,-0.03200,0.10200,-0.04000,0.11700,-0.02500,-0.14800,-0.10300
-0.03900,-0.04900,-0.01000,0.04400,-0.01400,-0.03000,0.10900,-0.01400,0.15800,0.01100,-0.13600,-0.10100
-0.03700,-0.04100,-0.00400,0.04000,-0.01600,-0.02200,0.11000,0.00300,0.18500,0.03800,-0.11400,-0.08700
-0.03100,-0.03800,-0.00700,0.03500,-0.01200,-0.02200,0.11700,0.02900,0.22700,0.06700,-0.10200,-0.08800
-0.02000,-0.02300,-0.00300,0.02200,-0.00800,-0.01200,0.11800,0.05700,0.27700,0.11900,-0.07300,-0.07300
-0.01700,-0.01700,-0.00100,0.01700,-0.00800,-0.00900,0.12600,0.09900,0.33700,0.16700,-0.05000,-0.06600
-0.00100,-0.00100,0.00000,0.00100,-0.00100,-0.00100,0.13800,0.14200,0.42300,0.24300,-0.00100,-0.04600
0.01200,0.01500,0.00300,-0.01400,0.00400,0.00900,0.14700,0.19300,0.50800,0.31900,0.03100,-0.02600
0.02400,0.04000,0.01600,-0.03200,0.00400,0.02800,0.16200,0.25400,0.60900,0.41500,0.08300,-0.00100
0.03800,0.06500,0.02700,-0.05200,0.00500,0.04600,0.16500,0.31100,0.69400,0.50300,0.13700,0.02200
0.05400,0.09600,0.04200,-0.07500,0.00600,0.06900,0.15500,0.35200,0.74400,0.57900,0.19100,0.04300
0.06300,0.12300,0.06000,-0.09300,0.00100,0.09100,0.14600,0.35300,0.74100,0.60300,0.22600,0.06500
0.06700,0.13800,0.07200,-0.10300,-0.00300,0.10400,0.13500,0.33000,0.70900,0.59500,0.21900,0.07000
0.06000,0.14000,0.07900,-0.10000,-0.00900,0.10900,0.11900,0.28100,0.64400,0.56100,0.21400,0.05900
0.04900,0.13000,0.08100,-0.09000,-0.01600,0.10500,0.09100,0.19700,0.54100,0.47900,0.19100,0.05200
0.04300,0.12000,0.07600,-0.08200,-0.01700,0.09800,0.05800,0.09900,0.41600,0.37000,0.13900,0.04200
0.03700,0.11100,0.07300,-0.07400,-0.01900,0.09200,0.02700,0.00800,0.28800,0.24400,0.08600,0.03400
0.02400,0.09400,0.06900,-0.05900,-0.02300,0.08100,0.00500,-0.06700,0.18400,0.14000,0.03100,0.01800
0.00600,0.07200,0.06600,-0.04000,-0.03000,0.06900,0.00000,-0.12100,0.10600,0.05900,-0.01600,-0.00300
0.00100,0.06300,0.06200,-0.03200,-0.03100,0.06300,-0.00500,-0.15300,0.05000,-0.00500,-0.05200,-0.01900
-0.00100,0.05900,0.06000,-0.02900,-0.03000,0.05900,-0.01100,-0.17900,0.01700,-0.03800,-0.07700,-0.03500
-0.00200,0.05400,0.05700,-0.02600,-0.03000,0.05500,-0.01700,-0.19400,0.00000,-0.05900,-0.09500,-0.04300
-0.00400,0.05000,0.05400,-0.02400,-0.02900,0.05200,-0.01900,-0.19200,-0.00500,-0.07300,-0.10300,-0.04900
-0.00600,0.04500,0.05100,-0.02000,-0.02900,0.04700,-0.01500,-0.18900,-0.00800,-0.08100,-0.10000,-0.05000
-0.00400,0.04500,0.04900,-0.02000,-0.02700,0.04700,-0.01300,-0.19100,-0.01200,-0.08500,-0.10000,-0.05000
-0.01200,0.04500,0.05700,-0.01700,-0.03500,0.05100,-0.01000,-0.18900,-0.01500,-0.08100,-0.10500,-0.05000
-0.01300,0.04500,0.05800,-0.01600,-0.03600,0.05100,-0.00700,-0.19100,-0.01100,-0.07700,-0.10500,-0.05000
-0.00900,0.04500,0.05400,-0.01800,-0.03200,0.05000,-0.00500,-0.18900,0.00000,-0.07200,-0.10500,-0.04900
-0.01100,0.04500,0.05500,-0.01800,-0.03300,0.05000,-0.00900,-0.18500,0.01000,-0.06800,-0.10100,-0.04400
-0.00600,0.04500,0.05100,-0.02000,-0.02900,0.04800,-0.01000,-0.18500,0.02000,-0.06300,-0.10000,-0.03800
-0.00500,0.04500,0.05000,-0.02000,-0.02800,0.04700,-0.01000,-0.18300,0.02800,-0.05100,-0.10000,-0.03500
-0.00500,0.04500,0.05000,-0.02000,-0.02800,0.04700,-0.01000,-0.18000,0.03300,-0.03600,-0.09500,-0.03000
-0.00500,0.04500,0.05000,-0.02000,-0.02800,0.04700,-0.01000,-0.18000,0.03500,-0.03000,-0.09500,-0.02600
-0.00500,0.04500,0.05000,-0.02000,-0.02800,0.04700,-0.01100,-0.18400,0.02700,-0.03100,-0.09400,-0.02800
-0.00500,0.04500,0.05000,-0.02000,-0.02800,0.04600,-0.01500,-0.19100,0.02500,-0.02900,-0.09000,-0.03100
-0.00800,0.04200,0.05000,-0.01700,-0.03000,0.04600,-0.01500,-0.19700,0.02000,-0.03200,-0.09000,-0.03100
-0.01100,0.03900,0.04900,-0.01400,-0.03000,0.04400,-0.01500,-0.20500,0.01500,-0.04200,-0.09300,-0.03500
-0.01600,0.03600,0.05200,-0.01000,-0.03500,0.04400,-0.01500,-0.21500,0.01300,-0.05400,-0.09500,-0.04100
-0.02200,0.03300,0.05600,-0.00600,-0.03900,0.04400,-0.01200,-0.22400,0.00100,-0.06900,-0.09800,-0.03400
-0.02500,0.03000,0.05400,-0.00300,-0.03900,0.04100,-0.00900,-0.23500,0.00300,-0.07600,-0.10100,-0.03800
-0.02500,0.03100,0.05600,-0.00400,-0.04000,0.04300,-0.00600,-0.23800,-0.01600,-0.08000,-0.09700,-0.03100
-0.01900,0.03500,0.05400,-0.00900,-0.03700,0.04400,-0.00400,-0.23500,-0.00900,-0.07600,-0.09500,-0.03500
-0.01300,0.06400,0.07700,-0.02600,-0.04500,0.07000,0.00000,-0.23400,-0.03200,-0.06500,-0.09200,-0.02500
-0.00300,0.09300,0.09600,-0.04500,-0.05000,0.09400,-0.00100,-0.23100,0.04900,-0.05900,-0.09000,-0.03600
0.01100,0.11500,0.10400,-0.06300,-0.04700,0.10900,-0.01700,-0.22900,0.04300,-0.04700,-0.08400,-0.05500
