I,II,III,aVR,aVL,aVF,V1,V2,V3,V4,V5,V6
-0.07800,0.16900,0.24700,-0.04600,-0.16300,0.20800,-0.01900,-0.06000,-0.06000,-0.07500,-0.08400,0.02500
-0.11300,0.15700,0.27000,-0.02200,-0.19200,0.21300,-0.01500,-0.06000,-0.06000,-0.07500,-0.08000,0.02500
-0.12800,0.15000,0.27800,-0.01100,-0.20300,0.21300,-0.01500,-0.06000,-0.06000,-0.07500,-0.07900,0.02500
-0.12100,0.14400,0.26600,-0.01200,-0.19300,0.20500,-0.01500,-0.06400,-0.06000,-0.07500,-0.07400,0.02500
-0.10600,0.15500,0.26100,-0.02500,-0.18400,0.20800,-0.01400,-0.06500,-0.06000,-0.07600,-0.07400,0.02500
-0.09100,0.16000,0.25200,-0.03500,-0.17200,0.20600,-0.01600,-0.06600,-0.06000,-0.07400,-0.06700,0.02400
-0.13300,0.11200,0.24500,0.01000,-0.18900,0.17800,-0.00900,-0.06900,-0.07100,-0.08500,-0.07900,0.02100
-0.12300,0.13000,0.25300,-0.00400,-0.18800,0.19200,0.01200,-0.07400,-0.07600,-0.09600,-0.09700,0.01900
-0.12700,0.13200,0.25900,-0.00300,-0.19300,0.19500,0.01600,-0.07500,-0.07400,-0.09500,-0.09400,0.02100
-0.12800,0.11900,0.24700,0.00500,-0.18800,0.18200,0.00900,-0.07500,-0.07900,-0.09500,-0.09500,0.01900
-0.09500,0.14900,0.24400,-0.02700,-0.17000,0.19600,0.00800,-0.07600,-0.07900,-0.09500,-0.09500,0.02100
-0.10300,0.13100,0.23500,-0.01400,-0.16900,0.18300,0.00100,-0.07200,-0.08100,-0.09500,-0.09400,0.01800
-0.11400,0.11500,0.22900,0.00000,-0.17200,0.17100,-0.00700,-0.08600,-0.08500,-0.09700,-0.09800,0.00700
-0.12200,0.13500,0.25800,-0.00700,-0.19000,0.19600,-0.01800,-0.09700,-0.09500,-0.10200,-0.10400,-0.00100
-0.12600,0.15400,0.28000,-0.01400,-0.20300,0.21600,-0.02600,-0.09500,-0.08600,-0.07700,-0.11200,-0.01900
-0.08700,0.18500,0.27200,-0.05000,-0.18000,0.22800,-0.01500,-0.07200,-0.04100,-0.05900,-0.08600,0.00300
-0.05700,0.20900,0.26600,-0.07600,-0.16200,0.23800,0.01900,-0.04800,-0.02700,-0.06400,-0.04800,0.04100
-0.09900,0.21600,0.31500,-0.05900,-0.20800,0.26600,0.03900,-0.05000,-0.03200,-0.05400,-0.03800,0.04900
-0.09100,0.25100,0.34200,-0.08000,-0.21700,0.29600,-0.00300,-0.05800,-0.02800,-0.03900,-0.02600,0.06700
-0.06200,0.27800,0.34000,-0.10800,-0.20100,0.30900,-0.03600,-0.08000,-0.03300,-0.03500,-0.02700,0.06400
-0.07000,0.25300,0.32300,-0.09200,-0.19700,0.28800,-0.03500,-0.08800,-0.02700,-0.03100,-0.02100,0.05400
-0.07200,0.19100,0.26300,-0.06000,-0.16700,0.22700,-0.03500,-0.08800,-0.03300,-0.04600,-0.03500,0.04500
-0.10900,0.13500,0.24400,-0.01400,-0.17700,0.19000,-0.03600,-0.09300,-0.06500,-0.06400,-0.06700,0.03900
-0.14300,0.08500,0.22800,0.02900,-0.18600,0.15600,-0.03400,-0.09500,-0.09300,-0.08600,-0.08400,0.02700
-0.09500,0.11200,0.20700,-0.00900,-0.15200,0.16000,-0.03500,-0.09400,-0.08100,-0.09000,-0.10200,0.02200
-0.10200,0.09000,0.19200,0.00600,-0.14700,0.14100,-0.02900,-0.08900,-0.08400,-0.09000,-0.11200,0.01100
-0.12000,0.06100,0.18200,0.02900,-0.15100,0.12100,-0.02200,-0.08100,-0.12000,-0.11700,-0.10600,0.00600
-0.10100,0.07400,0.17400,0.01300,-0.13800,0.12400,-0.02300,-0.08000,-0.10600,-0.10300,-0.09800,0.00300
-0.11600,0.04500,0.16200,0.03500,-0.13900,0.10300,-0.00900,-0.06800,-0.11300,-0.11700,-0.10700,-0.01100
-0.10800,0.09900,0.20700,0.00400,-0.15800,0.15300,-0.02100,-0.07300,-0.08200,-0.08300,-0.08000,0.02400
-0.15600,0.05600,0.21200,0.04900,-0.18400,0.13400,0.01600,-0.03400,-0.09800,-0.11300,-0.13200,-0.02700
-0.14500,0.06900,0.21300,0.03800,-0.17900,0.14100,0.17100,0.23700,0.07200,-0.04700,-0.11200,-0.03800
-0.00300,0.28200,0.28400,-0.14000,-0.14400,0.28300,0.35200,0.68000,0.53900,0.29600,0.14300,0.13900
0.29700,0.97800,0.68100,-0.63800,-0.19200,0.82900,0.10000,0.81300,1.49600,1.31300,0.97800,0.75800
0.35600,1.40100,1.04500,-0.87900,-0.34500,1.22300,-0.41100,0.09300,1.85300,1.96100,1.49500,1.13100
0.03300,0.63800,0.60400,-0.33600,-0.28600,0.62100,-0.35300,-0.44600,0.34000,0.60700,0.53200,0.47300
-0.13900,0.01600,0.15600,0.06100,-0.14700,0.08600,0.00800,0.04800,-0.34100,-0.25800,-0.15700,0.02000
-0.15700,-0.01100,0.14600,0.08400,-0.15100,0.06700,0.14100,0.33600,0.06200,-0.02100,-0.08900,0.01800
-0.07800,0.08300,0.16100,-0.00300,-0.12000,0.12200,0.10100,0.18000,-0.00600,-0.06200,-0.09600,-0.01400
-0.06200,0.15400,0.21600,-0.04600,-0.13900,0.18500,0.07400,0.08300,0.03600,-0.00200,-0.05300,0.01900
-0.10200,0.13100,0.23300,-0.01500,-0.16800,0.18200,0.07300,0.02100,0.01200,-0.02000,-0.05800,0.02400
-0.09300,0.13600,0.22800,-0.02100,-0.16100,0.18100,0.06000,0.03100,0.01200,-0.01100,-0.04300,0.05200
-0.06800,0.16100,0.22800,-0.04700,-0.14800,0.19400,0.05700,0.02400,0.01500,0.00100,-0.03900,0.04900
-0.04100,0.19500,0.23600,-0.07800,-0.13800,0.21500,0.04900,0.02400,0.02500,-0.00900,-0.03800,0.05300
-0.07000,0.18300,0.25300,-0.05700,-0.16200,0.21800,0.05100,0.02300,0.08000,0.00900,-0.02700,0.06800
-0.05600,0.18500,0.24000,-0.06500,-0.14900,0.21200,0.05000,0.01800,0.05500,0.01200,-0.03100,0.05300
-0.05200,0.18600,0.23900,-0.06700,-0.14600,0.21200,0.05000,0.02000,0.08300,0.04200,-0.01700,0.06000
-0.07200,0.18300,0.25500,-0.05600,-0.16400,0.21900,0.04800,0.03200,0.09700,0.03200,-0.01000,0.08400
-0.07800,0.19000,0.26800,-0.05700,-0.17300,0.22900,0.04300,0.05100,0.12000,0.05400,0.00900,0.09900
-0.04800,0.20500,0.25300,-0.07900,-0.15000,0.22900,0.04000,0.06400,0.17000,0.09000,0.01600,0.09300
-0.03500,0.21000,0.24500,-0.08800,-0.14000,0.22700,0.03600,0.08900,0.19800,0.11100,0.02900,0.09700
-0.05400,0.22500,0.27900,-0.08600,-0.16600,0.25200,0.03300,0.11800,0.25700,0.15300,0.06500,0.12400
0.01100,0.31000,0.29900,-0.16100,-0.14400,0.30400,0.02700,0.16700,0.33200,0.20600,0.10400,0.15800
0.01100,0.32500,0.31400,-0.16800,-0.15200,0.31900,0.04500,0.22200,0.41200,0.27400,0.15900,0.19400
0.01500,0.35600,0.34100,-0.18600,-0.16300,0.34800,0.04400,0.26600,0.49900,0.34700,0.21400,0.22800
0.06900,0.43100,0.36200,-0.25100,-0.14700,0.39600,0.02100,0.29700,0.56900,0.40600,0.26200,0.27200
0.07300,0.45000,0.37700,-0.26200,-0.15300,0.41400,0.02200,0.32100,0.63000,0.45700,0.31400,0.31300
0.10500,0.49200,0.38600,-0.29900,-0.14100,0.43800,0.01700,0.33600,0.64600,0.49300,0.35000,0.33700
0.10400,0.49200,0.38700,-0.29800,-0.14200,0.43900,0.02400,0.31700,0.62800,0.49500,0.35900,0.33500
0.08900,0.46000,0.37100,-0.27500,-0.14100,0.41500,0.01500,0.27000,0.56400,0.43800,0.32200,0.31800
0.07300,0.42500,0.35200,-0.24900,-0.14000,0.38800,0.03300,0.22100,0.42400,0.34500,0.25800,0.30800
0.02600,0.34200,0.31600,-0.18400,-0.14500,0.32900,0.07400,0.15600,0.27900,0.24100,0.18100,0.23000
-0.02500,0.24600,0.27100,-0.11100,-0.14800,0.25800,0.06100,0.08000,0.16000,0.11800,0.07700,0.14100
-0.03800,0.19300,0.23100,-0.07800,-0.13500,0.21200,0.06300,0.03400,0.06900,0.03500,0.00800,0.10000
-0.03600,0.16800,0.20300,-0.06600,-0.12000,0.18500,0.05900,-0.00400,0.01400,-0.01100,-0.04000,0.06700
-0.04100,0.15900,0.19900,-0.05900,-0.12000,0.17900,0.04900,-0.03500,-0.03400,-0.05500,-0.07600,0.05100
-0.06500,0.13500,0.20000,-0.03500,-0.13300,0.16800,0.04600,-0.04400,-0.05700,-0.06800,-0.07700,0.03500
-0.09500,0.10400,0.19900,-0.00500,-0.14700,0.15100,0.03800,-0.05100,-0.06500,-0.07400,-0.08400,0.02900
-0.09300,0.10700,0.20000,-0.00700,-0.14700,0.15300,0.04200,-0.05000,-0.06700,-0.08700,-0.08400,0.03100
-0.09700,0.10200,0.19900,-0.00300,-0.14800,0.15000,0.03800,-0.05000,-0.05900,-0.08900,-0.08000,0.02900
-0.07600,0.12000,0.19500,-0.02200,-0.13500,0.15700,0.04300,-0.05100,-0.05600,-0.08400,-0.07800,0.03100
-0.10800,0.08200,0.19000,0.01300,-0.14900,0.13600,0.03600,-0.04900,-0.04900,-0.07600,-0.07400,0.03000
-0.08700,0.09900,0.18700,-0.00600,-0.13700,0.14300,0.03500,-0.05400,-0.04400,-0.08400,-0.07200,0.02700
-0.02100,0.16000,0.18100,-0.07000,-0.10100,0.17000,0.05900,-0.05400,-0.03900,-0.08800,-0.06900,0.02400
-0.06200,0.11900,0.18100,-0.02800,-0.12200,0.15000,0.05400,-0.05700,-0.04100,-0.07700,-0.06700,0.02500
-0.08100,0.12600,0.20700,-0.02300,-0.14500,0.16600,0.04700,-0.05300,-0.03900,-0.07500,-0.06400,0.02500
-0.09000,0.12400,0.21500,-0.01700,-0.15300,0.17000,0.04300,-0.05700,-0.04100,-0.07500,-0.06300,0.02500
-0.09500,0.11100,0.20600,-0.00800,-0.15100,0.15800,0.03600,-0.05200,-0.04000,-0.07500,-0.05800,0.02400
-0.09200,0.11200,0.20400,-0.01000,-0.14900,0.15800,0.03200,-0.04400,-0.04200,-0.07500,-0.06200,0.01700
-0.06200,0.13600,0.19800,-0.03700,-0.13000,0.16700,0.02600,-0.07700,-0.07000,-0.07500,-0.08100,0.01100
-0.07600,0.11900,0.19500,-0.02200,-0.13600,0.15600,0.02100,-0.08900,-0.07800,-0.07500,-0.08900,0.00400
-0.10000,0.08800,0.18800,0.00500,-0.14400,0.13800,0.01400,-0.08600,-0.08600,-0.08900,-0.07500,-0.00300
-0.03900,0.14200,0.18100,-0.05200,-0.11000,0.16100,0.01000,-0.09400,-0.10200,-0.10600,-0.09200,-0.00900
-0.05100,0.12200,0.17400,-0.03600,-0.11300,0.14800,0.01000,-0.09300,-0.10000,-0.10600,-0.11800,-0.01400
-0.06400,0.10300,0.16700,-0.02000,-0.11500,0.13500,0.01000,-0.09700,-0.09800,-0.10300,-0.11700,-0.02000
-0.05200,0.10500,0.15700,-0.02700,-0.10500,0.13100,0.01000,-0.10000,-0.11400,-0.11600,-0.12200,-0.02500
-0.07400,0.09000,0.16400,-0.00800,-0.11900,0.12700,0.01000,-0.10000,-0.13200,-0.13200,-0.12500,-0.03100
-0.08400,0.09200,0.17600,-0.00400,-0.13000,0.13400,0.01000,-0.10200,-0.12900,-0.12900,-0.12400,-0.03600
-0.09900,0.07500,0.17400,0.01100,-0.13700,0.12500,0.00800,-0.10500,-0.13200,-0.13200,-0.12500,-0.04200
-0.08600,0.08900,0.17500,-0.00200,-0.13100,0.13200,0.00400,-0.10500,-0.13600,-0.13600,-0.12400,-0.04500
-0.08500,0.09000,0.17500,-0.00300,-0.13000,0.13200,0.00200,-0.10900,-0.13400,-0.13500,-0.12500,-0.04500
-0.10200,0.07300,0.17500,0.01400,-0.13900,0.12400,-0.00100,-0.11000,-0.13200,-0.13200,-0.12500,-0.04500
-0.09200,0.07900,0.17100,0.00600,-0.13200,0.12500,-0.00400,-0.11200,-0.12900,-0.12900,-0.12500,-0.04500
-0.09000,0.07700,0.16700,0.00600,-0.12900,0.12200,-0.00600,-0.11600,-0.13100,-0.13100,-0.13300,-0.04600
-0.10000,0.06000,0.16000,0.02000,-0.13100,0.11000,0.00700,-0.11300,-0.12500,-0.12900,-0.13100,-0.04000
-0.08900,0.07000,0.15900,0.00900,-0.12400,0.11400,0.02100,-0.10900,-0.12600,-0.13100,-0.12700,-0.03500
-0.05300,0.09700,0.15000,-0.02300,-0.10100,0.12400,0.01900,-0.10200,-0.12600,-0.12800,-0.12200,-0.02700
-0.06600,0.08600,0.15200,-0.01000,-0.10900,0.11900,0.02200,-0.09700,-0.12600,-0.12200,-0.11900,-0.02300
-0.08400,0.10400,0.18700,-0.01000,-0.13600,0.14500,0.01700,-0.09000,-0.11300,-0.10900,-0.11200,-0.01300
-0.10800,0.10000,0.20700,0.00400,-0.15800,0.15300,0.03100,-0.08600,-0.07900,-0.10500,-0.09200,-0.01300
-0.10400,0.13200,0.23600,-0.01400,-0.17000,0.18400,0.05300,-0.07400,-0.08000,-0.10400,-0.08900,-0.03000
-0.03400,0.21200,0.24600,-0.08900,-0.14000,0.22900,0.04300,-0.06900,-0.08000,-0.06800,-0.06800,0.00000
-0.06600,0.16900,0.23500,-0.05200,-0.15100,0.20200,0.03600,-0.10300,-0.06100,-0.07100,-0.06900,0.02500
-0.06000,0.17400,0.23400,-0.05700,-0.14800,0.20400,0.02400,-0.11900,-0.05400,-0.07900,-0.07700,0.03200
-0.03800,0.16500,0.20300,-0.06300,-0.12100,0.18400,0.01700,-0.11300,-0.06700,-0.06700,-0.07400,0.01700
-0.08200,0.08800,0.17100,-0.00300,-0.12700,0.12900,0.01400,-0.11600,-0.09900,-0.09400,-0.09600,-0.01800
-0.10400,0.04500,0.14900,0.02900,-0.12700,0.09700,0.01500,-0.11400,-0.11200,-0.10900,-0.11000,-0.03700
-0.11700,0.00000,0.11700,0.05800,-0.11700,0.05900,0.01500,-0.11700,-0.14200,-0.13800,-0.14000,-0.06300
-0.05800,0.02100,0.07900,0.01800,-0.06900,0.05000,0.01400,-0.13500,-0.14800,-0.14900,-0.15600,-0.08100
-0.09300,0.00400,0.09700,0.04400,-0.09500,0.05000,0.01500,-0.13200,-0.14800,-0.15600,-0.16000,-0.08700
-0.15800,-0.02100,0.13800,0.08900,-0.14800,0.05800,-0.01200,-0.12600,-0.12400,-0.13400,-0.13900,-0.07000
-0.12800,-0.01300,0.11500,0.07000,-0.12100,0.05100,-0.01000,-0.12400,-0.14400,-0.14300,-0.15000,-0.08100
-0.10700,0.01200,0.12000,0.04700,-0.11400,0.06600,-0.00800,-0.11600,-0.13100,-0.12500,-0.12500,-0.05800
-0.09700,0.00400,0.10100,0.04600,-0.09900,0.05200,0.02300,-0.10900,-0.11700,-0.12100,-0.13700,-0.07400
-0.09000,0.01500,0.10500,0.03700,-0.09700,0.05900,0.13100,0.08000,-0.06200,-0.11700,-0.16800,-0.10700
-0.03800,0.12400,0.16200,-0.04300,-0.10100,0.14300,0.32800,0.48400,0.27000,0.07600,-0.03100,-0.03200
0.20800,0.60000,0.39200,-0.40500,-0.09200,0.49600,0.27300,0.86600,1.03800,0.81200,0.57200,0.43300
0.46300,1.31800,0.85500,-0.89100,-0.19600,1.08600,-0.24100,0.48700,2.00900,1.94500,1.45800,1.09700
0.20800,0.92200,0.71500,-0.56500,-0.25400,0.81800,-0.42000,-0.38200,1.03600,1.19900,0.93300,0.72600
-0.06600,0.07200,0.13900,-0.00300,-0.10200,0.10500,-0.09900,-0.23500,-0.36900,-0.19900,-0.09800,0.00600
-0.03900,-0.05400,-0.01500,0.04600,-0.01200,-0.03400,0.09800,0.24900,-0.09600,-0.12500,-0.13800,-0.08500
-0.07200,0.01100,0.08300,0.03100,-0.07800,0.04700,0.10700,0.17600,-0.01600,-0.07400,-0.10700,-0.07200
-0.05100,0.09500,0.14600,-0.02200,-0.09900,0.12000,0.09900,0.07300,-0.04900,-0.08000,-0.09500,-0.04600
-0.04500,0.10400,0.14800,-0.03000,-0.09600,0.12500,0.07200,0.00100,-0.01300,-0.04500,-0.08100,-0.04200
-0.05800,0.09800,0.15600,-0.02000,-0.10700,0.12600,0.05300,-0.03100,-0.04500,-0.07000,-0.08900,-0.03800
-0.05800,0.11000,0.16700,-0.02600,-0.11300,0.13800,0.05000,-0.04100,-0.00200,-0.03300,-0.06900,-0.02600
-0.07300,0.10300,0.17600,-0.01600,-0.12400,0.13900,0.03800,-0.03900,-0.02400,-0.05100,-0.07700,-0.02600
-0.04800,0.12700,0.17600,-0.04000,-0.11200,0.15100,0.03300,-0.03800,-0.00200,-0.03400,-0.06000,-0.01300
-0.05000,0.12300,0.17400,-0.03700,-0.11300,0.14800,0.02600,-0.04500,-0.01700,-0.04800,-0.06200,-0.01400
-0.04600,0.13100,0.17700,-0.04300,-0.11100,0.15300,0.02500,-0.01600,0.02300,-0.01400,-0.05200,-0.00400
-0.04100,0.13100,0.17200,-0.04500,-0.10600,0.15100,0.02500,-0.01000,0.04300,-0.00200,-0.04900,-0.00100
-0.05600,0.13500,0.19100,-0.04000,-0.12400,0.16300,0.02500,-0.00200,0.06500,0.01100,-0.03800,0.00500
-0.06600,0.13500,0.20100,-0.03400,-0.13400,0.16800,0.02600,0.02500,0.09500,0.03600,-0.01700,0.01700
-0.06000,0.14000,0.20000,-0.04000,-0.13100,0.17000,0.02400,0.05200,0.13100,0.05900,0.01200,0.03000
-0.02500,0.18100,0.20600,-0.07800,-0.11500,0.19300,0.01600,0.08600,0.19000,0.10200,0.03100,0.05300
-0.00300,0.20200,0.20500,-0.10000,-0.10400,0.20400,0.00900,0.13500,0.24700,0.14100,0.06700,0.07400
0.02000,0.24200,0.22200,-0.13100,-0.10200,0.23200,0.00200,0.18500,0.32600,0.20100,0.11600,0.09400
0.06700,0.31400,0.24700,-0.19100,-0.09000,0.28000,-0.00600,0.24200,0.41300,0.27800,0.16700,0.15000
0.05900,0.33300,0.27400,-0.19600,-0.10800,0.30300,-0.01200,0.28700,0.48500,0.34100,0.22700,0.18800
0.08700,0.37800,0.29100,-0.23300,-0.10200,0.33400,-0.01200,0.32000,0.54100,0.39100,0.26800,0.22200
0.16500,0.46000,0.29500,-0.31300,-0.06500,0.37700,-0.00900,0.33000,0.58400,0.43700,0.31900,0.27800
0.16200,0.45700,0.29500,-0.31000,-0.06700,0.37600,-0.00600,0.31100,0.57700,0.44900,0.34300,0.27700
0.14200,0.42100,0.28000,-0.28200,-0.07000,0.35000,-0.00300,0.29200,0.52400,0.42000,0.33000,0.26100
0.09700,0.36900,0.27200,-0.23300,-0.08800,0.32000,-0.00100,0.21900,0.42000,0.33800,0.26400,0.24100
0.04900,0.29500,0.24600,-0.17200,-0.09900,0.27000,0.00100,0.12700,0.27400,0.21700,0.16800,0.17400
0.01400,0.21400,0.20000,-0.11400,-0.09400,0.20700,0.00700,0.06100,0.14500,0.10300,0.09100,0.10100
-0.01800,0.14800,0.16700,-0.06500,-0.09300,0.15700,0.01300,0.00200,0.04500,0.01600,0.01300,0.04500
-0.03200,0.11300,0.14400,-0.04100,-0.08900,0.12800,0.01900,-0.04000,-0.02300,-0.03400,-0.03500,0.00600
-0.07000,0.06800,0.13800,0.00100,-0.10400,0.10200,0.01700,-0.07400,-0.08100,-0.08100,-0.07000,-0.01600
-0.06700,0.06300,0.13100,0.00200,-0.09900,0.09700,0.01300,-0.08800,-0.11200,-0.10600,-0.09200,-0.03300
-0.05700,0.06600,0.12300,-0.00400,-0.09100,0.09500,0.01200,-0.08500,-0.11700,-0.11300,-0.09500,-0.04400
-0.06200,0.05300,0.11500,0.00400,-0.08800,0.08400,0.00800,-0.08500,-0.12900,-0.12900,-0.10900,-0.04700
-0.06500,0.04800,0.11300,0.00900,-0.09000,0.08000,0.00600,-0.08500,-0.12600,-0.12600,-0.10700,-0.05000
-0.08300,0.04200,0.12500,0.02000,-0.10400,0.08400,0.00300,-0.08500,-0.11900,-0.11900,-0.10000,-0.05000
-0.06800,0.05700,0.12500,0.00500,-0.09700,0.09100,0.00000,-0.08500,-0.11500,-0.11500,-0.09900,-0.05000
-0.06400,0.06200,0.12600,0.00100,-0.09500,0.09400,0.00000,-0.08500,-0.10700,-0.10700,-0.09000,-0.05000
-0.08100,0.04900,0.13000,0.01600,-0.10600,0.08900,-0.00200,-0.08500,-0.10700,-0.10700,-0.09400,-0.05000
-0.09200,0.03800,0.13000,0.02700,-0.11100,0.08400,-0.00600,-0.08500,-0.11000,-0.11000,-0.10100,-0.04700
-0.05400,0.07400,0.12800,-0.01000,-0.09100,0.10100,-0.00500,-0.08600,-0.11100,-0.11000,-0.09700,-0.04400
-0.03800,0.08300,0.12100,-0.02300,-0.07900,0.10200,-0.00500,-0.08500,-0.10900,-0.11300,-0.09100,-0.04100
-0.08600,0.02800,0.11400,0.02900,-0.10000,0.07100,-0.00800,-0.08500,-0.11100,-0.11500,-0.08800,-0.03800
-0.05800,0.05000,0.10800,0.00400,-0.08300,0.07800,-0.01200,-0.08500,-0.10900,-0.11500,-0.08300,-0.03500
-0.02600,0.07400,0.10000,-0.02500,-0.06300,0.08700,-0.01500,-0.08500,-0.11400,-0.11900,-0.07700,-0.03600
-0.04800,0.04800,0.09600,0.00000,-0.07200,0.07100,-0.01800,-0.10300,-0.11800,-0.12100,-0.09500,-0.04600
-0.07200,0.02800,0.10000,0.02200,-0.08600,0.06400,-0.02200,-0.11300,-0.12000,-0.12100,-0.10700,-0.05300
-0.11300,-0.00500,0.10900,0.05900,-0.11100,0.05200,-0.02500,-0.10800,-0.13500,-0.12700,-0.10700,-0.06300
-0.09300,0.01400,0.10600,0.03900,-0.09900,0.06000,-0.02500,-0.11200,-0.14100,-0.13800,-0.11100,-0.07100
-0.07500,0.01500,0.09000,0.03000,-0.08200,0.05200,-0.02400,-0.12100,-0.15600,-0.14000,-0.11000,-0.07400
-0.11400,-0.04100,0.07400,0.07700,-0.09400,0.01600,-0.02500,-0.12800,-0.16700,-0.14000,-0.11000,-0.07900
-0.12400,-0.05400,0.06900,0.08900,-0.09700,0.00700,-0.02800,-0.12900,-0.16400,-0.13900,-0.11000,-0.08000
-0.11600,-0.04500,0.07000,0.08000,-0.09300,0.01200,-0.03100,-0.13100,-0.16500,-0.14700,-0.11000,-0.08000
-0.12000,-0.04900,0.07000,0.08500,-0.09400,0.01000,-0.03400,-0.12900,-0.16500,-0.15600,-0.10900,-0.07900
-0.10700,-0.04000,0.06700,0.07400,-0.08700,0.01300,-0.03400,-0.13000,-0.16500,-0.15400,-0.11400,-0.08200
-0.09600,-0.04200,0.05400,0.06800,-0.07500,0.00600,-0.04500,-0.14500,-0.16000,-0.17100,-0.11900,-0.08400
-0.08000,-0.03800,0.04200,0.05900,-0.06100,0.00200,-0.05100,-0.15000,-0.16000,-0.17700,-0.12800,-0.09400
-0.02000,0.02000,0.04000,0.00000,-0.03000,0.03000,-0.04300,-0.14000,-0.15900,-0.17000,-0.13600,-0.10100
-0.04700,-0.00900,0.03900,0.02800,-0.04300,0.01500,-0.04300,-0.14100,-0.16100,-0.17000,-0.13500,-0.09600
-0.08400,-0.03400,0.05000,0.05900,-0.06700,0.00800,-0.03600,-0.13100,-0.15800,-0.16400,-0.13300,-0.08800
-0.09800,-0.03500,0.06300,0.06600,-0.08000,0.01400,-0.03600,-0.13300,-0.16600,-0.16700,-0.12900,-0.08700
-0.12000,-0.06300,0.05800,0.09200,-0.08900,-0.00200,-0.05700,-0.15500,-0.17800,-0.16900,-0.13100,-0.09800
-0.09800,-0.03600,0.06200,0.06700,-0.08000,0.01300,-0.05800,-0.14200,-0.16800,-0.16200,-0.12600,-0.09100
-0.07400,-0.01700,0.05700,0.04500,-0.06500,0.02000,-0.03900,-0.11700,-0.15400,-0.15300,-0.11500,-0.07900
-0.03700,0.02500,0.06200,0.00600,-0.05000,0.04300,-0.02700,-0.11100,-0.13000,-0.14200,-0.10400,-0.06600
-0.05400,0.04100,0.09600,0.00700,-0.07500,0.06800,0.00300,-0.09600,-0.11500,-0.12400,-0.09200,-0.05100
-0.04200,0.05800,0.09900,-0.00800,-0.07100,0.07800,-0.00200,-0.09600,-0.11100,-0.10000,-0.07900,-0.04100
-0.00800,0.07300,0.08100,-0.03300,-0.04400,0.07700,-0.06000,-0.14100,-0.13300,-0.12100,-0.07800,-0.04000
-0.01000,0.07000,0.08000,-0.03000,-0.04500,0.07400,-0.06700,-0.14600,-0.14900,-0.12800,-0.07000,-0.04000
0.00000,0.04700,0.04800,-0.02400,-0.02400,0.04700,-0.04900,-0.12600,-0.13800,-0.11200,-0.07300,-0.03800
-0.03400,-0.02900,0.00600,0.03200,-0.02000,-0.01100,-0.04800,-0.13100,-0.14500,-0.14100,-0.09700,-0.05600
-0.05900,-0.05400,0.00500,0.05700,-0.03200,-0.02500,-0.04200,-0.12700,-0.16200,-0.16100,-0.11600,-0.08700
-0.06300,-0.08600,-0.02300,0.07400,-0.02000,-0.05400,-0.04000,-0.14200,-0.19400,-0.18000,-0.14500,-0.10200
-0.04300,-0.10600,-0.06300,0.07500,0.01000,-0.08400,-0.03900,-0.15000,-0.18800,-0.18100,-0.14900,-0.10400
-0.03800,-0.10400,-0.06700,0.07100,0.01500,-0.08500,-0.03100,-0.14600,-0.20400,-0.19100,-0.14900,-0.10500
-0.05700,-0.11900,-0.06200,0.08800,0.00300,-0.09000,-0.03700,-0.14200,-0.18400,-0.17600,-0.13400,-0.09300
-0.06200,-0.13100,-0.06900,0.09700,0.00400,-0.10000,-0.02300,-0.14000,-0.19600,-0.18600,-0.14400,-0.10200
-0.04300,-0.10200,-0.05900,0.07300,0.00800,-0.08000,-0.03300,-0.13400,-0.18800,-0.17700,-0.12100,-0.08000
-0.04200,-0.11600,-0.07400,0.08000,0.01600,-0.09500,-0.01800,-0.11500,-0.17500,-0.18100,-0.15200,-0.11100
-0.07700,-0.13800,-0.06200,0.10800,-0.00700,-0.09900,0.08400,0.04400,-0.13600,-0.19800,-0.18900,-0.15100
-0.02200,-0.03300,-0.01100,0.02800,-0.00600,-0.02200,0.29200,0.46400,0.18400,-0.01300,-0.07600,-0.10200
0.24200,0.42100,0.17800,-0.33200,0.03200,0.29900,0.26400,0.87000,0.90500,0.69100,0.49200,0.34100
0.51900,1.13800,0.61900,-0.82900,-0.05000,0.87800,-0.22200,0.57600,1.95300,1.86100,1.42000,1.05800
0.26600,0.84900,0.58300,-0.55800,-0.15900,0.71500,-0.39200,-0.29600,1.12200,1.24700,0.99800,0.75300
-0.04100,-0.01000,0.03100,0.02600,-0.03600,0.01000,-0.12400,-0.29500,-0.37000,-0.19500,-0.05000,0.00600
-0.01400,-0.18700,-0.17300,0.10100,0.08000,-0.18000,0.06400,0.20800,-0.16800,-0.18500,-0.16200,-0.12000
-0.03800,-0.13100,-0.09300,0.08500,0.02800,-0.11200,0.08100,0.15500,-0.06600,-0.11700,-0.13300,-0.11100
-0.02100,-0.09000,-0.06900,0.05600,0.02400,-0.07900,0.05600,0.06600,-0.08600,-0.12500,-0.12400,-0.09400
-0.02200,-0.07500,-0.05300,0.04900,0.01600,-0.06400,0.04200,0.00400,-0.04900,-0.09700,-0.10400,-0.08400
-0.03700,-0.07800,-0.04200,0.05800,0.00300,-0.06000,0.03500,-0.03600,-0.09600,-0.12600,-0.10700,-0.07800
-0.03000,-0.06400,-0.03400,0.04700,0.00300,-0.04900,0.03900,-0.00900,-0.02900,-0.07000,-0.08400,-0.06200
-0.04900,-0.06700,-0.01800,0.05900,-0.01500,-0.04300,0.02300,-0.02500,-0.06000,-0.09700,-0.08900,-0.05900
-0.01800,-0.05200,-0.03400,0.03600,0.00800,-0.04300,0.03200,-0.02900,-0.02800,-0.06100,-0.06900,-0.04200
-0.01500,-0.06500,-0.05000,0.04000,0.01800,-0.05700,0.02800,-0.03000,-0.00900,-0.06400,-0.06300,-0.03800
-0.02800,-0.06800,-0.04000,0.04800,0.00600,-0.05300,0.02400,-0.00900,0.01300,-0.04800,-0.04500,-0.02600
-0.00900,-0.04300,-0.03400,0.02600,0.01300,-0.03800,0.02300,0.00600,0.02500,-0.01700,-0.03300,-0.02100
-0.00700,-0.03500,-0.02800,0.02100,0.01100,-0.03100,0.01900,0.03700,0.06000,0.00200,-0.01900,-0.01200
-0.01600,-0.03600,-0.02000,0.02700,0.00200,-0.02800,0.01700,0.05000,0.09500,0.01100,-0.00400,-0.00600
-0.01100,-0.02800,-0.01700,0.02000,0.00400,-0.02200,0.00900,0.05500,0.11800,0.02300,0.00900,-0.00300
0.03000,0.02200,-0.00800,-0.02600,0.01900,0.00700,0.00500,0.10500,0.17700,0.07800,0.04500,0.03000
0.06300,0.05700,-0.00600,-0.06000,0.03400,0.02500,-0.00200,0.15000,0.23800,0.12600,0.07600,0.05600
0.06400,0.06900,0.00500,-0.06600,0.02900,0.03600,-0.00600,0.19700,0.31000,0.17800,0.11800,0.09100
0.07100,0.12400,0.05300,-0.09800,0.00900,0.08800,-0.02200,0.26300,0.39900,0.25700,0.17900,0.14000
0.10000,0.16800,0.06900,-0.13400,0.01500,0.11800,-0.03600,0.30400,0.46500,0.31600,0.22900,0.17700
0.16600,0.22800,0.06200,-0.19800,0.05200,0.14500,-0.04400,0.33900,0.53100,0.38400,0.28900,0.23300
0.21300,0.28000,0.06700,-0.24700,0.07300,0.17300,-0.04400,0.36400,0.56000,0.43500,0.33400,0.26900
0.22100,0.28400,0.06300,-0.25300,0.07900,0.17300,-0.03600,0.34900,0.54200,0.42700,0.34500,0.27800
0.20200,0.26500,0.06300,-0.23300,0.06900,0.16400,-0.02800,0.31200,0.52400,0.41000,0.33600,0.28100
0.15900,0.20800,0.04900,-0.18400,0.05500,0.12800,-0.02000,0.25100,0.42400,0.33300,0.28200,0.24000
0.12300,0.13100,0.00800,-0.12700,0.05700,0.06900,-0.01200,0.17500,0.28200,0.21500,0.19700,0.16600
0.09500,0.05800,-0.03700,-0.07600,0.06600,0.01100,-0.00700,0.10800,0.16100,0.11200,0.11300,0.09000
0.03800,-0.01400,-0.05200,-0.01200,0.04500,-0.03300,-0.00400,0.03800,0.05200,0.01700,0.03200,0.03300
0.00600,-0.06900,-0.07500,0.03200,0.04100,-0.07200,-0.00100,-0.00500,-0.01000,-0.04400,-0.01900,-0.00300
0.02600,-0.07300,-0.09800,0.02400,0.06200,-0.08500,0.00200,-0.02700,-0.04900,-0.07700,-0.03700,-0.02700
-0.01200,-0.10500,-0.09300,0.05900,0.04000,-0.09900,0.00500,-0.05000,-0.08300,-0.09700,-0.05800,-0.04100
-0.00900,-0.12400,-0.11500,0.06700,0.05300,-0.11900,0.00300,-0.04600,-0.09500,-0.10100,-0.07200,-0.04500
-0.00500,-0.12700,-0.12200,0.06600,0.05900,-0.12400,0.01400,-0.06400,-0.09500,-0.11100,-0.07000,-0.05300
-0.04900,-0.16400,-0.11500,0.10700,0.03300,-0.13900,0.01800,-0.07900,-0.08800,-0.12000,-0.07000,-0.06200
-0.04100,-0.15700,-0.11700,0.10000,0.03800,-0.13700,0.01000,-0.06400,-0.08500,-0.11000,-0.06800,-0.05700
-0.02900,-0.14700,-0.11800,0.08800,0.04500,-0.13300,0.00700,-0.05500,-0.08000,-0.10400,-0.06400,-0.05500
-0.00800,-0.13800,-0.13100,0.07300,0.06200,-0.13400,-0.00100,-0.04600,-0.07500,-0.09800,-0.06500,-0.05200
-0.00800,-0.13200,-0.12400,0.07100,0.05800,-0.12800,-0.00400,-0.04500,-0.07900,-0.08900,-0.06800,-0.04900
-0.00100,-0.13100,-0.13000,0.06700,0.06400,-0.13000,-0.01300,-0.04500,-0.08100,-0.09900,-0.07100,-0.05400
-0.01600,-0.12600,-0.11000,0.07100,0.04700,-0.11700,-0.01800,-0.04600,-0.07900,-0.10600,-0.07000,-0.05500
-0.02500,-0.12300,-0.09800,0.07400,0.03700,-0.11000,-0.01400,-0.04400,-0.08100,-0.10000,-0.07000,-0.05500
0.00500,-0.11900,-0.12400,0.05700,0.06500,-0.12200,-0.01600,-0.05100,-0.07900,-0.09800,-0.07000,-0.05500
-0.03200,-0.14600,-0.11400,0.08900,0.04200,-0.13000,-0.01100,-0.07100,-0.08200,-0.09400,-0.07100,-0.05500
-0.05500,-0.15800,-0.10400,0.10700,0.02500,-0.13100,-0.01000,-0.07500,-0.08500,-0.09000,-0.07600,-0.05600
-0.04700,-0.15300,-0.10600,0.10000,0.03000,-0.12900,-0.01000,-0.07800,-0.09000,-0.09400,-0.07900,-0.06200
-0.02600,-0.16400,-0.13800,0.09600,0.05600,-0.15100,-0.00400,-0.08300,-0.10100,-0.10800,-0.08400,-0.07000
0.00100,-0.15300,-0.15400,0.07600,0.07800,-0.15400,0.00100,-0.08500,-0.10500,-0.11900,-0.09100,-0.07100
-0.02500,-0.17200,-0.14700,0.09900,0.06100,-0.15900,0.00800,-0.08900,-0.12200,-0.12600,-0.09600,-0.08100
-0.05900,-0.21100,-0.15300,0.13500,0.04700,-0.18200,0.00800,-0.09000,-0.13200,-0.13000,-0.10500,-0.09500
-0.06300,-0.21000,-0.14700,0.13700,0.04200,-0.17900,0.00400,-0.08500,-0.12900,-0.13100,-0.11000,-0.09500
-0.05400,-0.20700,-0.15300,0.13100,0.04900,-0.18000,0.00200,-0.08500,-0.13500,-0.12800,-0.11000,-0.09500
-0.06400,-0.20300,-0.13900,0.13400,0.03800,-0.17100,-0.00100,-0.08500,-0.13900,-0.13500,-0.11000,-0.09500
-0.05400,-0.19700,-0.14300,0.12500,0.04500,-0.16900,-0.00500,-0.08500,-0.13800,-0.14600,-0.11000,-0.09500
-0.02000,-0.19400,-0.17400,0.10700,0.07800,-0.18400,-0.00500,-0.08500,-0.13400,-0.14500,-0.11000,-0.09500
-0.01800,-0.18900,-0.17100,0.10400,0.07700,-0.18000,-0.01800,-0.08800,-0.13500,-0.14500,-0.11000,-0.09500
-0.02300,-0.18100,-0.15800,0.10200,0.06800,-0.16900,-0.02800,-0.10700,-0.15200,-0.14500,-0.12500,-0.09500
-0.03800,-0.21200,-0.17300,0.12500,0.06800,-0.19200,-0.02400,-0.11000,-0.15600,-0.14500,-0.13000,-0.09500
-0.04300,-0.24000,-0.19700,0.14200,0.07700,-0.21800,-0.02500,-0.10400,-0.15100,-0.14300,-0.12100,-0.09500
-0.06000,-0.23200,-0.17200,0.14700,0.05600,-0.20200,-0.02200,-0.10200,-0.15000,-0.13900,-0.11900,-0.09400
-0.06500,-0.23700,-0.17200,0.15100,0.05400,-0.20400,-0.01900,-0.09600,-0.14500,-0.14000,-0.11300,-0.11100
-0.04600,-0.23400,-0.18800,0.14000,0.07100,-0.21100,-0.02200,-0.09700,-0.14600,-0.14000,-0.11000,-0.11700
-0.05000,-0.23600,-0.18700,0.14300,0.06900,-0.21200,-0.02200,-0.09800,-0.13900,-0.14000,-0.11700,-0.11100
-0.02600,-0.22200,-0.19600,0.12500,0.08500,-0.20900,-0.02900,-0.09900,-0.13500,-0.14100,-0.11400,-0.11000
-0.03000,-0.17800,-0.14700,0.10400,0.05900,-0.16200,-0.01500,-0.08500,-0.12200,-0.12200,-0.10200,-0.10000
-0.02900,-0.15400,-0.12400,0.09200,0.04800,-0.13900,0.01600,-0.06500,-0.08700,-0.09800,-0.09300,-0.08400
0.00000,-0.13000,-0.13000,0.06500,0.06600,-0.13000,0.03900,-0.02300,-0.07800,-0.09500,-0.08200,-0.07300
0.00300,-0.12100,-0.12400,0.06000,0.06400,-0.12300,0.00400,-0.04900,-0.08300,-0.09500,-0.07500,-0.06600
0.05800,-0.10000,-0.15800,0.02100,0.10800,-0.12800,-0.05900,-0.11400,-0.10700,-0.09100,-0.07300,-0.06500
0.08800,-0.08600,-0.17400,-0.00100,0.13100,-0.13000,-0.04400,-0.09100,-0.10500,-0.09000,-0.06800,-0.05800
0.02900,-0.13100,-0.15900,0.05200,0.09400,-0.14500,-0.03000,-0.09600,-0.09400,-0.08900,-0.06500,-0.05600
0.00500,-0.17300,-0.17900,0.08400,0.09200,-0.17600,-0.03800,-0.10900,-0.12200,-0.10800,-0.08700,-0.08000
-0.00500,-0.22500,-0.22000,0.11500,0.10700,-0.22200,-0.03400,-0.11400,-0.14200,-0.13800,-0.11800,-0.10600
-0.02600,-0.24400,-0.21800,0.13500,0.09600,-0.23100,-0.04200,-0.12300,-0.15700,-0.14700,-0.11900,-0.10800
-0.01300,-0.25100,-0.23800,0.13200,0.11300,-0.24400,-0.04000,-0.11400,-0.15400,-0.16100,-0.13900,-0.12200
-0.01500,-0.26300,-0.24800,0.13900,0.11700,-0.25500,-0.03600,-0.11600,-0.16500,-0.18000,-0.15600,-0.13000
-0.02700,-0.25400,-0.22700,0.14100,0.10000,-0.24000,-0.03500,-0.10900,-0.13900,-0.15400,-0.14200,-0.11800
-0.03100,-0.26000,-0.22900,0.14600,0.09900,-0.24400,-0.02000,-0.11100,-0.16400,-0.17800,-0.16000,-0.13200
-0.03900,-0.23900,-0.20000,0.13900,0.08000,-0.21900,-0.02700,-0.10300,-0.13000,-0.14700,-0.13800,-0.10600
-0.05700,-0.26800,-0.21100,0.16300,0.07700,-0.23900,0.00800,-0.08100,-0.14400,-0.17000,-0.16500,-0.14300
-0.06300,-0.25800,-0.19500,0.16100,0.06600,-0.22700,0.12700,0.14000,-0.06300,-0.14900,-0.14600,-0.17400
0.04400,-0.12200,-0.16600,0.03900,0.10500,-0.14400,0.32000,0.60800,0.30400,0.08700,0.00000,-0.07600
0.38600,0.46400,0.07800,-0.42500,0.15400,0.27100,0.17600,0.93500,1.18300,0.98700,0.72700,0.50600
0.54600,1.07500,0.52900,-0.81000,0.00800,0.80200,-0.32900,0.41500,2.02600,1.98200,1.50700,1.10300
0.19500,0.52300,0.32800,-0.35900,-0.06600,0.42500,-0.38600,-0.40600,0.70600,0.87900,0.74100,0.55200
-0.03200,-0.24900,-0.21700,0.14100,0.09300,-0.23200,-0.08800,-0.16000,-0.45400,-0.29700,-0.14500,-0.09500
0.00700,-0.31200,-0.31900,0.15300,0.16300,-0.31500,0.06900,0.25400,-0.06100,-0.10100,-0.13400,-0.13900
0.00500,-0.23300,-0.23800,0.11400,0.12200,-0.23500,0.07100,0.14400,-0.07200,-0.11200,-0.12200,-0.12300
-0.00600,-0.20300,-0.19700,0.10500,0.09600,-0.20000,0.04400,0.07800,-0.04200,-0.07400,-0.09400,-0.09000
-0.01900,-0.19500,-0.17600,0.10700,0.07800,-0.18500,0.04300,0.01200,-0.04400,-0.07000,-0.09200,-0.10100
-0.01000,-0.17900,-0.16900,0.09500,0.08000,-0.17400,0.03000,0.00100,-0.05800,-0.07800,-0.08100,-0.09100
-0.00800,-0.17000,-0.16200,0.08900,0.07700,-0.16600,0.02800,0.00000,-0.02700,-0.05200,-0.06900,-0.08800
-0.00700,-0.16200,-0.15600,0.08500,0.07500,-0.15900,0.01800,-0.00700,-0.05500,-0.06800,-0.07000,-0.08700
-0.00500,-0.15500,-0.14900,0.08000,0.07200,-0.15200,0.01500,-0.00500,-0.00900,-0.04700,-0.05500,-0.07800
-0.01600,-0.15900,-0.14300,0.08800,0.06300,-0.15100,-0.00400,-0.02500,-0.02400,-0.07200,-0.05600,-0.07400
-0.02700,-0.16800,-0.14100,0.09700,0.05700,-0.15400,-0.01900,-0.00400,0.00500,-0.04100,-0.04100,-0.06400
-0.02000,-0.15700,-0.13700,0.08900,0.05800,-0.14700,-0.00100,0.02200,0.02900,-0.01900,-0.03400,-0.06000
0.01300,-0.12200,-0.13500,0.05500,0.07400,-0.12800,0.00200,0.03400,0.05800,-0.00300,-0.01800,-0.04400
0.01100,-0.12000,-0.13100,0.05500,0.07100,-0.12500,-0.00600,0.05400,0.09300,0.02200,-0.00500,-0.03300
0.02500,-0.10400,-0.12900,0.03900,0.07700,-0.11600,-0.01200,0.08700,0.12900,0.05300,0.02000,-0.01600
0.04800,-0.09000,-0.13800,0.02100,0.09400,-0.11400,-0.02000,0.12200,0.17900,0.08400,0.04300,0.00100
0.06400,-0.04700,-0.11100,-0.00800,0.08800,-0.07900,-0.00700,0.18000,0.25200,0.14600,0.08000,0.03800
0.09300,0.01400,-0.07900,-0.05300,0.08500,-0.03200,0.00200,0.24300,0.33500,0.21500,0.13500,0.08600
0.11200,0.04200,-0.07000,-0.07700,0.09100,-0.01400,-0.01100,0.28500,0.40900,0.27300,0.17600,0.11200
0.14700,0.08400,-0.06200,-0.11500,0.10400,0.01100,-0.02100,0.32900,0.47000,0.33400,0.23400,0.15000
0.19400,0.12900,-0.06500,-0.16100,0.12900,0.03200,-0.03200,0.36000,0.51900,0.38500,0.28000,0.19400
0.24200,0.17600,-0.06600,-0.20800,0.15300,0.05500,-0.04600,0.36900,0.55100,0.42300,0.31500,0.23100
0.27900,0.21500,-0.06400,-0.24700,0.17100,0.07600,-0.04300,0.35300,0.53900,0.42800,0.33700,0.24700
0.26200,0.19500,-0.06600,-0.22800,0.16400,0.06400,-0.03300,0.31200,0.49300,0.40600,0.31800,0.22600
0.17400,0.11100,-0.06300,-0.14200,0.11800,0.02400,-0.01900,0.25000,0.38800,0.31600,0.25600,0.17300
0.12300,0.04900,-0.07400,-0.08600,0.09800,-0.01200,0.00300,0.17200,0.24400,0.19300,0.16100,0.10500
0.08400,-0.01900,-0.10200,-0.03200,0.09300,-0.06000,0.02100,0.10400,0.12700,0.09400,0.08400,0.04500
0.05100,-0.07400,-0.12500,0.01200,0.08900,-0.09900,0.02700,0.04200,0.03700,0.01600,0.01800,-0.00300
0.02300,-0.13500,-0.15800,0.05600,0.09100,-0.14600,0.01900,-0.00600,-0.04500,-0.05200,-0.03700,-0.05400
0.00100,-0.17100,-0.17100,0.08500,0.08600,-0.17100,0.01200,-0.04400,-0.08200,-0.09900,-0.07000,-0.08200
0.00100,-0.16900,-0.16900,0.08400,0.08500,-0.16900,0.00600,-0.05900,-0.10000,-0.10300,-0.09200,-0.08400
-0.03600,-0.20500,-0.16900,0.12100,0.06700,-0.18700,-0.00300,-0.05400,-0.11900,-0.11200,-0.09500,-0.08900
-0.03600,-0.20000,-0.16400,0.11900,0.06400,-0.18200,-0.00800,-0.05700,-0.11200,-0.11300,-0.09600,-0.08800
-0.01900,-0.18500,-0.16600,0.10200,0.07400,-0.17500,-0.00600,-0.05300,-0.10700,-0.10600,-0.09300,-0.08400
-0.03800,-0.20100,-0.16300,0.12000,0.06300,-0.18200,-0.00300,-0.06500,-0.10300,-0.11800,-0.10100,-0.08500
-0.02900,-0.20500,-0.17600,0.11800,0.07400,-0.19000,-0.00100,-0.08100,-0.09600,-0.11800,-0.10400,-0.08100
0.01300,-0.16900,-0.18300,0.07800,0.09800,-0.17600,0.00300,-0.07300,-0.09200,-0.09900,-0.08700,-0.07900
0.00400,-0.16400,-0.16800,0.08000,0.08700,-0.16600,0.00500,-0.07000,-0.08900,-0.09400,-0.08500,-0.08100
0.00400,-0.16500,-0.16900,0.08100,0.08700,-0.16600,0.00300,-0.06200,-0.09100,-0.09600,-0.08500,-0.08400
0.00300,-0.16700,-0.17000,0.08200,0.08700,-0.16800,-0.00500,-0.05800,-0.09000,-0.09400,-0.08500,-0.08600
-0.01700,-0.18700,-0.16900,0.10200,0.07600,-0.17800,-0.01000,-0.05400,-0.09100,-0.09600,-0.08500,-0.08400
-0.00600,-0.17700,-0.17000,0.09200,0.08200,-0.17300,-0.01800,-0.05700,-0.08900,-0.09500,-0.08500,-0.08600
0.00200,-0.16800,-0.16900,0.08300,0.08600,-0.16800,-0.02400,-0.06000,-0.09300,-0.10300,-0.09000,-0.08400
0.00100,-0.17000,-0.17100,0.08400,0.08700,-0.17000,-0.02000,-0.06200,-0.10900,-0.11200,-0.09900,-0.08500
-0.03400,-0.20900,-0.17500,0.12200,0.07100,-0.19200,-0.01400,-0.08700,-0.12700,-0.12300,-0.11200,-0.10100
-0.04800,-0.22400,-0.17700,0.13600,0.06400,-0.20000,-0.00800,-0.09100,-0.13200,-0.13000,-0.11900,-0.10700
-0.03500,-0.21700,-0.18200,0.12600,0.07300,-0.20000,-0.00400,-0.09200,-0.12700,-0.13200,-0.12500,-0.10400
-0.04800,-0.22200,-0.17300,0.13500,0.06200,-0.19700,0.00500,-0.09500,-0.14400,-0.14500,-0.12900,-0.10500
-0.04600,-0.21900,-0.17300,0.13300,0.06300,-0.19600,-0.00100,-0.09900,-0.15600,-0.15600,-0.13100,-0.10600
-0.01600,-0.22000,-0.20400,0.11800,0.09400,-0.21100,-0.00800,-0.11100,-0.16000,-0.15500,-0.12900,-0.11200
-0.00800,-0.21600,-0.20800,0.11200,0.10100,-0.21200,-0.00600,-0.11000,-0.17300,-0.15400,-0.13400,-0.12000
-0.01900,-0.21300,-0.19400,0.11600,0.08800,-0.20300,-0.01100,-0.10900,-0.17000,-0.16400,-0.13700,-0.12200
-0.01900,-0.21000,-0.19100,0.11500,0.08600,-0.20100,-0.01700,-0.10500,-0.17000,-0.17000,-0.13500,-0.12000
-0.03500,-0.20800,-0.17300,0.12200,0.07000,-0.19000,-0.02600,-0.10500,-0.16900,-0.16400,-0.13500,-0.12000
-0.02200,-0.20200,-0.18000,0.11200,0.08000,-0.19100,-0.02500,-0.10700,-0.16400,-0.16000,-0.13100,-0.12000
-0.00500,-0.21500,-0.21000,0.11000,0.10300,-0.21200,-0.02400,-0.11200,-0.16500,-0.15500,-0.13000,-0.11900
-0.03700,-0.24000,-0.20400,0.13900,0.08400,-0.22200,-0.02000,-0.11500,-0.16400,-0.15800,-0.12900,-0.12200
-0.04300,-0.24100,-0.19800,0.14200,0.07800,-0.21900,-0.02000,-0.11000,-0.16500,-0.16000,-0.14100,-0.12500
-0.03400,-0.22800,-0.19400,0.13100,0.08100,-0.21100,-0.01900,-0.11000,-0.16400,-0.16000,-0.14500,-0.12500
-0.04000,-0.22300,-0.18400,0.13200,0.07200,-0.20300,-0.00600,-0.10200,-0.16600,-0.16500,-0.13900,-0.12500
-0.01000,-0.20800,-0.19800,0.11000,0.09400,-0.20300,-0.01900,-0.11300,-0.16700,-0.16500,-0.13700,-0.12500
0.00000,-0.21600,-0.21600,0.10900,0.10800,-0.21600,-0.02700,-0.12300,-0.16000,-0.16400,-0.13200,-0.12600
-0.03100,-0.21700,-0.18600,0.12400,0.07700,-0.20100,-0.01500,-0.10800,-0.15100,-0.15200,-0.13000,-0.11900
-0.03300,-0.17800,-0.14500,0.10600,0.05600,-0.16200,-0.00200,-0.09700,-0.14400,-0.13800,-0.12400,-0.10600
-0.01800,-0.16900,-0.15100,0.09400,0.06700,-0.16000,0.02000,-0.09500,-0.13500,-0.12300,-0.11400,-0.09500
-0.00400,-0.16000,-0.15600,0.08300,0.07600,-0.15800,0.02800,-0.06800,-0.13100,-0.11000,-0.10700,-0.08600
-0.01200,-0.16700,-0.15500,0.09000,0.07200,-0.16100,-0.01500,-0.07100,-0.12900,-0.10400,-0.09800,-0.07700
0.00800,-0.14700,-0.15400,0.07000,0.08100,-0.15000,-0.06100,-0.12000,-0.13000,-0.10500,-0.09300,-0.07800
0.06000,-0.09500,-0.15500,0.01800,0.10800,-0.12500,-0.05000,-0.12000,-0.13100,-0.10200,-0.08900,-0.08400
0.03700,-0.13600,-0.17400,0.05000,0.10600,-0.15500,-0.03900,-0.11400,-0.12500,-0.09600,-0.09000,-0.08700
0.00000,-0.19400,-0.19400,0.09700,0.09700,-0.19400,-0.04000,-0.11500,-0.15100,-0.12200,-0.10500,-0.09600
0.01200,-0.22100,-0.23300,0.10500,0.12300,-0.22600,-0.03500,-0.10700,-0.17800,-0.14900,-0.13900,-0.10800
-0.01700,-0.25500,-0.23900,0.13700,0.11100,-0.24700,-0.03200,-0.12000,-0.19300,-0.16400,-0.15800,-0.12500
-0.05800,-0.28600,-0.22800,0.17300,0.08600,-0.25700,-0.03100,-0.14100,-0.20000,-0.17600,-0.15800,-0.14100
-0.04000,-0.28500,-0.24500,0.16300,0.10300,-0.26400,-0.02900,-0.13600,-0.21300,-0.18500,-0.16500,-0.14200
-0.03500,-0.27400,-0.23800,0.15500,0.10200,-0.25600,-0.04000,-0.12800,-0.18900,-0.16100,-0.15300,-0.12900
-0.05000,-0.28800,-0.23800,0.16900,0.09400,-0.26300,-0.03500,-0.13100,-0.20800,-0.18400,-0.17000,-0.14200
-0.04200,-0.27000,-0.22800,0.15600,0.09300,-0.24900,-0.04700,-0.11500,-0.18800,-0.15100,-0.14800,-0.11700
-0.04300,-0.29200,-0.25000,0.16800,0.10300,-0.27100,-0.04200,-0.12800,-0.18500,-0.18200,-0.17800,-0.14900
-0.04600,-0.27300,-0.22700,0.16000,0.09100,-0.25000,0.08800,0.06900,-0.11800,-0.18100,-0.19300,-0.17300
0.02000,-0.16800,-0.18900,0.07500,0.10500,-0.17800,0.29300,0.52500,0.19300,0.02200,-0.07900,-0.11100
0.32800,0.33600,0.00800,-0.33200,0.16000,0.17200,0.21900,0.90100,0.97400,0.79500,0.55900,0.38500
0.57400,1.03400,0.46000,-0.80500,0.05700,0.74700,-0.26600,0.55100,2.00800,1.96000,1.45600,1.07500
0.26800,0.63200,0.36400,-0.45000,-0.04800,0.49800,-0.41900,-0.34200,0.94400,1.11500,0.88100,0.66000
-0.00400,-0.18300,-0.17900,0.09300,0.08800,-0.18100,-0.13000,-0.26700,-0.48200,-0.24900,-0.11100,-0.05200
0.02000,-0.32000,-0.34000,0.15100,0.18000,-0.33000,0.05100,0.22700,-0.16000,-0.13300,-0.14600,-0.13400
0.01000,-0.24700,-0.25700,0.11900,0.13400,-0.25200,0.07000,0.15100,-0.10100,-0.11000,-0.12000,-0.11400
0.02900,-0.19600,-0.22500,0.08400,0.12700,-0.21000,0.04600,0.06300,-0.11800,-0.10800,-0.11200,-0.08500
-0.01100,-0.20400,-0.19300,0.10800,0.09100,-0.19800,0.03900,0.00800,-0.07600,-0.08200,-0.10300,-0.08500
-0.02200,-0.20800,-0.18700,0.11500,0.08300,-0.19700,0.02700,-0.02300,-0.11000,-0.10100,-0.10800,-0.07500
0.01300,-0.16700,-0.18000,0.07700,0.09700,-0.17400,0.02000,-0.02500,-0.06200,-0.06500,-0.09200,-0.06500
0.00200,-0.18200,-0.18400,0.09000,0.09300,-0.18300,0.00900,-0.03600,-0.08500,-0.08400,-0.09900,-0.07200
0.00000,-0.19000,-0.19000,0.09500,0.09500,-0.19000,0.01300,-0.02000,-0.04700,-0.04900,-0.07400,-0.06400
0.02000,-0.15000,-0.17000,0.06600,0.09500,-0.16000,0.02200,-0.02100,-0.04400,-0.04600,-0.06700,-0.06100
0.02900,-0.15400,-0.18300,0.06300,0.10700,-0.16900,0.01400,-0.00900,-0.01500,-0.02400,-0.05400,-0.05200
0.02400,-0.15800,-0.18200,0.06700,0.10400,-0.17000,0.01400,-0.00100,0.00400,-0.01300,-0.04500,-0.04600
0.02700,-0.15000,-0.17700,0.06200,0.10200,-0.16300,0.00700,0.01600,0.02500,0.00400,-0.03500,-0.04100
0.01000,-0.14900,-0.15900,0.07000,0.08500,-0.15400,0.00600,0.05100,0.05900,0.03100,-0.00700,-0.02300
0.01700,-0.13800,-0.15500,0.06000,0.08600,-0.14600,-0.00700,0.05400,0.08900,0.03800,0.00200,-0.00400
0.03200,-0.12600,-0.15900,0.04700,0.09600,-0.14200,-0.03700,0.08900,0.13200,0.07800,0.02500,0.00900
0.04200,-0.08500,-0.12800,0.02200,0.08500,-0.10600,-0.04600,0.14900,0.19800,0.13600,0.06300,0.03200
0.10000,-0.01300,-0.11300,-0.04400,0.10700,-0.06200,-0.04500,0.20000,0.27500,0.19500,0.10700,0.07400
0.17700,0.07200,-0.10500,-0.12400,0.14100,-0.01700,-0.04500,0.27600,0.36200,0.27500,0.17600,0.12700
0.19100,0.10600,-0.08500,-0.14800,0.13800,0.01000,-0.04400,0.30700,0.42300,0.32900,0.22200,0.16400
0.19900,0.12500,-0.07400,-0.16200,0.13600,0.02600,-0.04600,0.33600,0.46700,0.38200,0.26700,0.20200
0.24300,0.15800,-0.08400,-0.20000,0.16300,0.03700,-0.04600,0.35000,0.50400,0.42300,0.30800,0.23900
0.26200,0.18100,-0.08200,-0.22100,0.17200,0.04900,-0.04200,0.33900,0.49700,0.42600,0.32200,0.25800
0.25200,0.17000,-0.08200,-0.21100,0.16700,0.04400,-0.03400,0.30800,0.45400,0.40800,0.30400,0.24500
0.21800,0.13100,-0.08700,-0.17400,0.15200,0.02100,-0.03200,0.23400,0.36400,0.33400,0.25100,0.20100
0.15700,0.05600,-0.10000,-0.10600,0.12800,-0.02200,-0.00700,0.17500,0.24300,0.22100,0.17600,0.14400
0.09500,-0.03300,-0.12800,-0.03100,0.11200,-0.08000,0.01700,0.10500,0.11300,0.12300,0.09400,0.08200
0.06700,-0.09600,-0.16300,0.01500,0.11500,-0.13000,0.01200,0.02900,0.00600,0.04900,0.02300,0.02800
0.06100,-0.13100,-0.19200,0.03500,0.12700,-0.16100,0.00900,-0.02300,-0.05500,-0.01200,-0.02600,-0.00400
0.03500,-0.14700,-0.18200,0.05700,0.10900,-0.16500,0.00500,-0.05300,-0.09500,-0.05500,-0.05400,-0.02600
-0.01200,-0.20000,-0.18900,0.10600,0.08900,-0.19400,0.02400,-0.06200,-0.12500,-0.08700,-0.07200,-0.05300
-0.01300,-0.21700,-0.20400,0.11500,0.09600,-0.21000,0.03200,-0.06500,-0.12800,-0.09400,-0.07600,-0.06100
-0.01300,-0.20700,-0.19400,0.11000,0.09100,-0.20000,0.02100,-0.06500,-0.12400,-0.08700,-0.07400,-0.05700
-0.01900,-0.20900,-0.19000,0.11400,0.08600,-0.19900,0.01800,-0.06800,-0.12600,-0.08300,-0.07000,-0.05500
-0.00300,-0.19300,-0.18900,0.09800,0.09300,-0.19100,0.00700,-0.07100,-0.12100,-0.07600,-0.06500,-0.05100
-0.00100,-0.19200,-0.19100,0.09600,0.09500,-0.19100,0.00500,-0.06900,-0.12000,-0.07100,-0.06000,-0.04900
0.01000,-0.17700,-0.18700,0.08400,0.09800,-0.18200,-0.00900,-0.06600,-0.12000,-0.06600,-0.05700,-0.05100
0.01000,-0.18600,-0.19600,0.08800,0.10300,-0.19100,-0.01500,-0.06100,-0.11600,-0.06400,-0.05000,-0.04900
0.01600,-0.19300,-0.20900,0.08900,0.11300,-0.20100,-0.01300,-0.05900,-0.11300,-0.06100,-0.05400,-0.05100
0.00200,-0.19500,-0.19700,0.09700,0.10000,-0.19600,-0.00500,-0.05500,-0.11100,-0.06100,-0.06500,-0.04900
-0.01700,-0.20400,-0.18800,0.11100,0.08600,-0.19600,0.02100,-0.05000,-0.10700,-0.06600,-0.06500,-0.04500
-0.00500,-0.17800,-0.17400,0.09200,0.08500,-0.17600,0.01700,-0.05400,-0.10500,-0.06800,-0.06900,-0.04600
-0.01800,-0.17900,-0.16100,0.09800,0.07200,-0.17000,0.00400,-0.05300,-0.10700,-0.07200,-0.07000,-0.04400
0.00900,-0.18300,-0.19200,0.08700,0.10100,-0.18700,-0.00400,-0.07100,-0.11800,-0.07500,-0.07200,-0.05600
0.03800,-0.17500,-0.21300,0.06900,0.12600,-0.19400,-0.00800,-0.09300,-0.12600,-0.07900,-0.08000,-0.06600
0.02100,-0.18700,-0.20800,0.08300,0.11500,-0.19700,-0.00400,-0.09200,-0.13100,-0.09100,-0.08500,-0.07100
-0.00100,-0.21100,-0.21000,0.10600,0.10500,-0.21000,-0.00500,-0.09800,-0.15200,-0.09500,-0.09300,-0.08600
-0.00800,-0.20900,-0.20100,0.10900,0.09700,-0.20500,-0.00500,-0.10000,-0.15500,-0.09700,-0.10200,-0.08400
0.00600,-0.20400,-0.21000,0.09900,0.10900,-0.20700,-0.00400,-0.09600,-0.15600,-0.10100,-0.10600,-0.08600
-0.01300,-0.20400,-0.19100,0.10900,0.08900,-0.19700,-0.00700,-0.08900,-0.16200,-0.09600,-0.10400,-0.08900
0.00000,-0.19700,-0.19600,0.09900,0.09800,-0.19600,-0.01000,-0.08500,-0.16300,-0.09500,-0.10500,-0.09100
0.00500,-0.21200,-0.21700,0.10400,0.11100,-0.21500,-0.01200,-0.10400,-0.17900,-0.08900,-0.10500,-0.08900
-0.02700,-0.22000,-0.19300,0.12400,0.08300,-0.20600,-0.01600,-0.11500,-0.18000,-0.09500,-0.10300,-0.08300
-0.00100,-0.21500,-0.21400,0.10800,0.10700,-0.21400,-0.00900,-0.10600,-0.18100,-0.10600,-0.11800,-0.09500
0.02100,-0.20800,-0.23000,0.09400,0.12600,-0.21900,-0.00400,-0.10200,-0.18500,-0.10400,-0.11400,-0.09800
0.00700,-0.21000,-0.21800,0.10200,0.11300,-0.21400,0.00800,-0.09700,-0.18500,-0.10600,-0.10300,-0.08100
-0.01700,-0.22800,-0.21000,0.12300,0.09700,-0.21900,-0.00200,-0.08800,-0.18300,-0.10300,-0.10200,-0.06800
-0.00800,-0.24400,-0.23600,0.12700,0.11400,-0.24000,-0.01900,-0.11300,-0.17900,-0.11600,-0.11400,-0.08800
-0.01700,-0.25200,-0.23500,0.13500,0.10900,-0.24400,-0.01700,-0.13200,-0.18000,-0.12500,-0.12700,-0.10200
-0.02600,-0.24300,-0.21700,0.13500,0.09600,-0.23000,-0.03000,-0.11800,-0.17500,-0.11600,-0.12000,-0.09200
-0.00400,-0.23400,-0.23000,0.11900,0.11300,-0.23200,-0.02100,-0.11600,-0.17500,-0.11300,-0.11800,-0.09000
-0.01400,-0.22700,-0.21400,0.12100,0.10000,-0.22100,-0.00600,-0.10700,-0.17500,-0.10600,-0.11300,-0.08500
-0.00500,-0.21600,-0.21200,0.11100,0.10400,-0.21400,-0.01200,-0.10100,-0.17600,-0.10200,-0.11000,-0.08100
-0.02600,-0.21000,-0.18400,0.11800,0.07900,-0.19700,-0.01400,-0.09100,-0.17200,-0.09500,-0.10400,-0.07600
-0.02700,-0.18500,-0.15800,0.10600,0.06600,-0.17100,-0.01600,-0.08100,-0.15800,-0.08000,-0.08700,-0.06400
0.01400,-0.15500,-0.16900,0.07100,0.09100,-0.16100,0.00300,-0.07600,-0.14700,-0.07200,-0.07600,-0.05500
0.02400,-0.11800,-0.14200,0.04800,0.08300,-0.13000,0.03000,-0.05300,-0.14200,-0.07500,-0.06100,-0.04500
0.04900,-0.08300,-0.13100,0.01700,0.09000,-0.10700,-0.00600,-0.08600,-0.13100,-0.07400,-0.05800,-0.03800
0.04000,-0.11000,-0.14900,0.03500,0.09500,-0.12900,-0.04900,-0.12600,-0.14000,-0.07900,-0.07100,-0.03600
0.03400,-0.11000,-0.14400,0.03800,0.08900,-0.12700,-0.04800,-0.11700,-0.15000,-0.07800,-0.05600,-0.02700
0.04400,-0.13200,-0.17600,0.04400,0.11000,-0.15300,-0.04000,-0.12100,-0.15500,-0.08200,-0.06800,-0.04200
0.01800,-0.19100,-0.20900,0.08700,0.11400,-0.20000,-0.03600,-0.12000,-0.16100,-0.08700,-0.09500,-0.06600
-0.02900,-0.22900,-0.20000,0.13000,0.08600,-0.21400,-0.02500,-0.11900,-0.18300,-0.11100,-0.11800,-0.09300
-0.02100,-0.24900,-0.22800,0.13500,0.10400,-0.23900,-0.02500,-0.13300,-0.21100,-0.13100,-0.13400,-0.11300
0.01400,-0.23900,-0.25300,0.11300,0.13400,-0.24600,-0.00400,-0.14400,-0.21500,-0.12600,-0.13400,-0.12000
0.00800,-0.23400,-0.24200,0.11300,0.12600,-0.23800,0.01400,-0.13200,-0.21800,-0.14400,-0.14100,-0.11800
0.02200,-0.21900,-0.24100,0.09800,0.13200,-0.22900,0.00000,-0.12400,-0.19200,-0.13000,-0.13300,-0.11100
-0.00100,-0.24500,-0.24400,0.12300,0.12200,-0.24500,0.00500,-0.11900,-0.21400,-0.13800,-0.14000,-0.11900
-0.02400,-0.26700,-0.24200,0.14600,0.10900,-0.25400,-0.02100,-0.11000,-0.18000,-0.10600,-0.10900,-0.09700
-0.01200,-0.26400,-0.25100,0.13800,0.12000,-0.25700,0.01400,-0.08900,-0.21200,-0.14900,-0.15400,-0.13500
-0.00900,-0.23000,-0.22100,0.12000,0.10600,-0.22500,0.15500,0.18500,-0.07400,-0.09800,-0.15500,-0.15100
0.07600,-0.07600,-0.15200,0.00000,0.11400,-0.11400,0.33600,0.66500,0.33300,0.18500,0.05300,-0.01300
0.43400,0.58800,0.15300,-0.51100,0.14000,0.37000,0.10900,0.90700,1.31800,1.21100,0.88300,0.64400
0.55200,1.07100,0.51800,-0.81200,0.01700,0.79400,-0.36700,0.29100,1.96000,2.00200,1.48400,1.10300
0.16000,0.40700,0.24700,-0.28300,-0.04300,0.32700,-0.32900,-0.44500,0.39700,0.65300,0.56300,0.44600
0.00300,-0.24000,-0.24200,0.11900,0.12300,-0.24100,-0.05700,-0.09400,-0.50400,-0.29200,-0.16800,-0.09000
0.02500,-0.27400,-0.29900,0.12500,0.16200,-0.28600,0.07200,0.23000,-0.08200,-0.04900,-0.11300,-0.10900
0.01200,-0.19600,-0.20700,0.09200,0.11000,-0.20100,0.06200,0.10900,-0.15000,-0.10200,-0.11100,-0.10400
0.02500,-0.15800,-0.18300,0.06700,0.10400,-0.17000,0.04000,0.06200,-0.08600,-0.05000,-0.07300,-0.07500
-0.01300,-0.18600,-0.17300,0.10000,0.08000,-0.17900,0.04000,-0.02100,-0.10600,-0.06200,-0.08300,-0.08000
-0.00300,-0.16900,-0.16600,0.08600,0.08100,-0.16700,0.02500,-0.01500,-0.09800,-0.05100,-0.06900,-0.06200
0.00600,-0.14300,-0.14900,0.06900,0.07800,-0.14600,0.02700,-0.02000,-0.08000,-0.03700,-0.06300,-0.06100
-0.00800,-0.14500,-0.13700,0.07700,0.06500,-0.14100,0.00400,-0.00900,-0.09400,-0.04300,-0.06100,-0.05500
-0.00600,-0.14200,-0.13700,0.07400,0.06600,-0.13900,0.01900,-0.02000,-0.06200,-0.02200,-0.05000,-0.05000
0.00100,-0.13000,-0.13100,0.06500,0.06600,-0.13000,0.03200,-0.04300,-0.06900,-0.02600,-0.05000,-0.04700
0.03200,-0.11600,-0.14800,0.04200,0.09100,-0.13200,0.02300,-0.01400,-0.03800,0.01000,-0.03900,-0.04000
0.02100,-0.11700,-0.13800,0.04800,0.08000,-0.12700,0.02100,-0.00600,-0.02400,0.01600,-0.03000,-0.03700
0.00000,-0.11400,-0.11300,0.05700,0.05700,-0.11300,0.01500,0.02000,0.02300,0.04000,-0.00500,-0.02400
0.05700,-0.07000,-0.12700,0.00700,0.09200,-0.09800,0.01000,0.03700,0.04800,0.06200,0.01700,-0.01300
0.04800,-0.07600,-0.12500,0.01400,0.08700,-0.10000,0.00000,0.06000,0.07800,0.09000,0.03300,0.00200
0.07100,-0.05400,-0.12500,-0.00800,0.09800,-0.08900,-0.00800,0.09400,0.12400,0.12800,0.04700,0.02300
0.10900,-0.00600,-0.11500,-0.05100,0.11300,-0.06100,-0.01700,0.14500,0.19100,0.17900,0.09600,0.05900
0.11200,0.02200,-0.09000,-0.06700,0.10100,-0.03400,-0.02800,0.20300,0.27000,0.24200,0.14300,0.09300
0.19000,0.12400,-0.06600,-0.15700,0.12800,0.02900,-0.04500,0.25100,0.33800,0.30700,0.19300,0.13700
0.20500,0.16100,-0.04400,-0.18300,0.12400,0.05900,-0.04500,0.30100,0.41000,0.37600,0.26100,0.18900
0.20700,0.17100,-0.03600,-0.18900,0.12100,0.06800,-0.04600,0.31900,0.45300,0.42200,0.29600,0.21800
0.22300,0.19800,-0.02500,-0.21000,0.12300,0.08600,-0.06400,0.32100,0.45500,0.44600,0.32700,0.24300
0.22000,0.21400,-0.00600,-0.21700,0.11300,0.10300,-0.05800,0.31100,0.43800,0.46100,0.33400,0.25700
0.22700,0.22200,-0.00500,-0.22400,0.11600,0.10800,-0.04500,0.26600,0.40700,0.43000,0.31400,0.24500
0.18400,0.15800,-0.02600,-0.17100,0.10500,0.06600,-0.03300,0.20300,0.30700,0.33700,0.26700,0.20500
0.12800,0.07600,-0.05300,-0.10200,0.09000,0.01200,-0.01800,0.12600,0.17200,0.22300,0.17100,0.13400
0.08500,0.00600,-0.07900,-0.04500,0.08200,-0.03600,-0.00500,0.05500,0.06400,0.11600,0.08900,0.07000
0.06000,-0.04700,-0.10700,-0.00600,0.08400,-0.07700,0.01000,0.00400,-0.03500,0.04900,0.02400,0.02500
0.03400,-0.09800,-0.13200,0.03300,0.08300,-0.11500,0.00800,-0.03500,-0.09000,0.01200,-0.02300,-0.00300
0.02500,-0.11100,-0.13600,0.04400,0.08100,-0.12300,0.00200,-0.06500,-0.11600,-0.03100,-0.04100,-0.02600
0.04200,-0.11100,-0.15300,0.03500,0.09800,-0.13200,-0.00200,-0.08300,-0.14600,-0.05800,-0.05300,-0.04600
0.01900,-0.14700,-0.16600,0.06400,0.09300,-0.15600,-0.00900,-0.08500,-0.14500,-0.05900,-0.05600,-0.04500
0.00600,-0.15000,-0.15600,0.07200,0.08200,-0.15300,-0.01400,-0.08000,-0.14500,-0.05200,-0.05000,-0.04000
0.01800,-0.13500,-0.15300,0.05900,0.08600,-0.14400,-0.01500,-0.07900,-0.14400,-0.04800,-0.04800,-0.03800
0.01500,-0.12800,-0.14200,0.05700,0.07800,-0.13500,-0.01500,-0.07500,-0.13900,-0.04100,-0.04300,-0.03300
0.00500,-0.13400,-0.13900,0.06500,0.07200,-0.13700,-0.01500,-0.07600,-0.14100,-0.03600,-0.04000,-0.03000
0.01300,-0.11600,-0.12900,0.05200,0.07100,-0.12200,-0.01500,-0.08100,-0.13700,-0.04600,-0.05500,-0.04500
0.01200,-0.11100,-0.12300,0.05000,0.06800,-0.11700,-0.01500,-0.08200,-0.13400,-0.05200,-0.06200,-0.05200
0.00100,-0.14100,-0.14100,0.07100,0.07100,-0.14100,-0.01600,-0.08800,-0.12900,-0.04500,-0.05600,-0.04900
0.02000,-0.12600,-0.14600,0.05300,0.08300,-0.13500,-0.02500,-0.08900,-0.12800,-0.04500,-0.05500,-0.05100
0.03700,-0.11800,-0.15500,0.04100,0.09700,-0.13700,-0.02700,-0.09400,-0.12100,-0.04000,-0.05000,-0.05000
0.03600,-0.11100,-0.14700,0.03800,0.09200,-0.12900,-0.02200,-0.09500,-0.12200,-0.04100,-0.05000,-0.05100
0.02000,-0.11700,-0.13700,0.04800,0.07900,-0.12600,-0.01900,-0.08000,-0.15100,-0.06200,-0.05800,-0.05500
-0.00700,-0.15000,-0.14200,0.07900,0.06800,-0.14500,-0.01600,-0.09600,-0.15600,-0.06500,-0.06700,-0.05500
-0.00300,-0.14200,-0.13800,0.07200,0.06800,-0.14000,-0.01000,-0.11200,-0.15600,-0.06600,-0.07200,-0.05500
0.00000,-0.14100,-0.14100,0.07000,0.07100,-0.14000,-0.01300,-0.11000,-0.16000,-0.07300,-0.06700,-0.06600
-0.02000,-0.16400,-0.14400,0.09300,0.06200,-0.15400,-0.01100,-0.11000,-0.17100,-0.08600,-0.07600,-0.07200
-0.01900,-0.16500,-0.14600,0.09200,0.06400,-0.15500,0.00000,-0.11200,-0.18400,-0.10100,-0.09200,-0.07500
-0.00400,-0.16500,-0.16100,0.08500,0.07900,-0.16300,-0.00400,-0.13300,-0.17900,-0.10000,-0.09000,-0.08000
0.00100,-0.16400,-0.16600,0.08200,0.08400,-0.16500,-0.01200,-0.13600,-0.17800,-0.09800,-0.09000,-0.08100
-0.00600,-0.16600,-0.16000,0.08600,0.07700,-0.16300,-0.01600,-0.13400,-0.17300,-0.09500,-0.09000,-0.08600
-0.00200,-0.16100,-0.15900,0.08200,0.07900,-0.16000,-0.02100,-0.13600,-0.18300,-0.09400,-0.08900,-0.08200
-0.00200,-0.15600,-0.15400,0.07900,0.07700,-0.15500,-0.03800,-0.13400,-0.20100,-0.09900,-0.09300,-0.08000
-0.02100,-0.17700,-0.15600,0.09900,0.06800,-0.16600,-0.04100,-0.13400,-0.19900,-0.10500,-0.09500,-0.08000
-0.02200,-0.18200,-0.16000,0.10200,0.06900,-0.17100,-0.03400,-0.13000,-0.19600,-0.10500,-0.09500,-0.07600
-0.00800,-0.17300,-0.16500,0.09100,0.07900,-0.16900,-0.03500,-0.12800,-0.19300,-0.10500,-0.09500,-0.07500
-0.01500,-0.17600,-0.16100,0.09600,0.07300,-0.16800,-0.02900,-0.12400,-0.18900,-0.10500,-0.09500,-0.07500
-0.00700,-0.16700,-0.16000,0.08700,0.07700,-0.16400,-0.03000,-0.12200,-0.19100,-0.10400,-0.09500,-0.08500
-0.01300,-0.17000,-0.15700,0.09200,0.07200,-0.16300,-0.02100,-0.11900,-0.19500,-0.10600,-0.09000,-0.09100
-0.02000,-0.17400,-0.15400,0.09700,0.06800,-0.16400,-0.02200,-0.12300,-0.20000,-0.10300,-0.09000,-0.08900
0.00800,-0.15200,-0.16000,0.07200,0.08500,-0.15600,-0.04200,-0.13800,-0.19500,-0.11000,-0.08900,-0.09100
-0.01300,-0.16700,-0.15500,0.09000,0.07100,-0.16100,-0.03700,-0.13100,-0.18600,-0.11700,-0.08500,-0.09000
-0.02900,-0.17400,-0.14600,0.10200,0.05900,-0.16000,-0.02700,-0.12300,-0.17800,-0.10400,-0.08600,-0.09100
0.01100,-0.13800,-0.14900,0.06400,0.08100,-0.14400,-0.01900,-0.11400,-0.17000,-0.09200,-0.08200,-0.08700
0.01800,-0.10800,-0.12600,0.04500,0.07300,-0.11700,-0.00800,-0.08600,-0.15300,-0.07800,-0.06600,-0.07800
-0.02400,-0.10600,-0.08100,0.06500,0.02900,-0.09300,0.00600,-0.07400,-0.13500,-0.07000,-0.05400,-0.06700
0.01000,-0.08000,-0.09000,0.03500,0.05100,-0.08500,-0.00300,-0.07400,-0.13600,-0.06900,-0.05400,-0.05800
0.03700,-0.04800,-0.08500,0.00600,0.06100,-0.06600,-0.03700,-0.10700,-0.13100,-0.06500,-0.05500,-0.05900
0.04000,-0.05100,-0.09100,0.00500,0.06600,-0.07100,-0.06000,-0.12400,-0.14600,-0.06400,-0.05500,-0.06100
0.06200,-0.06200,-0.12400,0.00100,0.09300,-0.09300,-0.05800,-0.11400,-0.15800,-0.05700,-0.05400,-0.05900
0.01900,-0.11400,-0.13300,0.04800,0.07700,-0.12300,-0.05400,-0.10700,-0.16100,-0.07200,-0.05800,-0.06400
0.00400,-0.15400,-0.15700,0.07500,0.08100,-0.15500,-0.05100,-0.10300,-0.18100,-0.09400,-0.08600,-0.08500
-0.00800,-0.17800,-0.17000,0.09300,0.08100,-0.17400,-0.04500,-0.14300,-0.21800,-0.12400,-0.11200,-0.11000
-0.00500,-0.18800,-0.18300,0.09700,0.08900,-0.18500,-0.04600,-0.15200,-0.21400,-0.12800,-0.11500,-0.11500
-0.01900,-0.20000,-0.18100,0.10900,0.08100,-0.19000,-0.03400,-0.14900,-0.22500,-0.14400,-0.13100,-0.12500
-0.04500,-0.21100,-0.16700,0.12800,0.06100,-0.18800,-0.03700,-0.15100,-0.22000,-0.13700,-0.11900,-0.11500
-0.04400,-0.21300,-0.16900,0.12800,0.06300,-0.19000,-0.02300,-0.14800,-0.22200,-0.14000,-0.12900,-0.12500
-0.04900,-0.20000,-0.15100,0.12500,0.05100,-0.17500,-0.02500,-0.15400,-0.23600,-0.14600,-0.12400,-0.11600
-0.03000,-0.19500,-0.16500,0.11200,0.06800,-0.18000,-0.01600,-0.13500,-0.19300,-0.12600,-0.12100,-0.12200
-0.05400,-0.21900,-0.16500,0.13700,0.05500,-0.19100,0.05100,-0.02600,-0.20300,-0.16800,-0.15900,-0.14500
-0.02400,-0.15100,-0.12700,0.08700,0.05200,-0.13900,0.23600,0.37000,0.05700,-0.02200,-0.08400,-0.10900
0.21800,0.20600,-0.01200,-0.21200,0.11500,0.09700,0.31500,0.82800,0.63600,0.49900,0.33000,0.18900
0.53600,0.93200,0.39500,-0.73400,0.07000,0.66300,-0.12000,0.75100,1.77900,1.71700,1.28900,0.92800
0.42100,0.94500,0.52400,-0.68300,-0.05200,0.73400,-0.40300,-0.08000,1.51700,1.62700,1.24000,0.89800
0.05800,0.11500,0.05700,-0.08700,0.00100,0.08600,-0.20700,-0.40100,-0.23400,0.05100,0.14300,0.11900
0.00500,-0.24000,-0.24500,0.11700,0.12500,-0.24200,0.02200,0.10500,-0.34400,-0.21300,-0.14300,-0.11800
0.02200,-0.18000,-0.20300,0.07900,0.11300,-0.19100,0.09000,0.18400,-0.08400,-0.05400,-0.08600,-0.10100
-0.00700,-0.14800,-0.14100,0.07700,0.06700,-0.14400,0.04000,0.06900,-0.15900,-0.09900,-0.09600,-0.09900
-0.02500,-0.14200,-0.11600,0.08400,0.04600,-0.12900,0.03100,0.01700,-0.07200,-0.04400,-0.06700,-0.08600
-0.04300,-0.15200,-0.10900,0.09800,0.03400,-0.13000,0.01400,-0.04000,-0.13000,-0.08800,-0.08300,-0.09200
-0.01500,-0.11500,-0.10000,0.06500,0.04300,-0.10700,0.00900,-0.04200,-0.07900,-0.03800,-0.06000,-0.07700
0.00700,-0.08200,-0.08900,0.03800,0.04800,-0.08600,0.00400,-0.06100,-0.10300,-0.05200,-0.06300,-0.07300
-0.01200,-0.09400,-0.08100,0.05300,0.03500,-0.08700,-0.00900,-0.04300,-0.07800,-0.03000,-0.04400,-0.05500
-0.02500,-0.09800,-0.07300,0.06200,0.02400,-0.08500,-0.00900,-0.04700,-0.07200,-0.02800,-0.03700,-0.05000
-0.01700,-0.08700,-0.07000,0.05200,0.02700,-0.07800,-0.02000,-0.03800,-0.06500,-0.02300,-0.02300,-0.04200
-0.02800,-0.08400,-0.05600,0.05600,0.01500,-0.07000,-0.00300,-0.02900,-0.03700,0.00100,-0.01100,-0.03600
-0.00400,-0.07400,-0.07000,0.03900,0.03300,-0.07100,0.00100,-0.00500,-0.01200,0.01800,0.00300,-0.03000
0.05100,-0.03700,-0.08800,-0.00700,0.07000,-0.06200,-0.02700,0.02500,0.03100,0.04400,0.01700,-0.01900
0.04600,-0.01600,-0.06200,-0.01400,0.05400,-0.03900,-0.03000,0.04900,0.05300,0.06800,0.02900,0.00400
0.04200,-0.00700,-0.04800,-0.01700,0.04500,-0.02700,-0.03100,0.07600,0.09300,0.09500,0.05100,0.02800
0.05700,0.01700,-0.03900,-0.03700,0.04800,-0.01100,-0.03600,0.11300,0.14900,0.12600,0.07700,0.04500
0.07200,0.05000,-0.02200,-0.06100,0.04600,0.01400,-0.03500,0.16700,0.21500,0.18200,0.12500,0.07500
0.17400,0.16100,-0.01300,-0.16800,0.09400,0.07400,-0.04100,0.22800,0.29400,0.25600,0.18000,0.11900
0.19700,0.21100,0.01400,-0.20400,0.09100,0.11200,-0.04700,0.27500,0.36300,0.32100,0.22800,0.15800
0.15800,0.19600,0.03800,-0.17700,0.06000,0.11600,-0.05800,0.29900,0.41500,0.36200,0.27500,0.19100
0.21400,0.24600,0.03100,-0.23100,0.09200,0.13800,-0.05900,0.33100,0.45600,0.41600,0.32200,0.24100
0.21400,0.26900,0.05400,-0.24200,0.08000,0.16100,-0.06400,0.33700,0.47400,0.45000,0.34600,0.26700
0.19000,0.25800,0.06900,-0.22400,0.06000,0.16300,-0.06800,0.30400,0.45100,0.42500,0.34500,0.26400
0.19200,0.24600,0.05400,-0.22000,0.06900,0.15000,-0.05200,0.25000,0.36700,0.38200,0.31000,0.23800
0.13700,0.17500,0.03700,-0.15600,0.05000,0.10600,-0.04300,0.18000,0.25100,0.28500,0.23600,0.18200
0.11300,0.10600,-0.00700,-0.10900,0.06000,0.04900,-0.03800,0.10200,0.11900,0.17100,0.14600,0.12000
0.07900,0.04600,-0.03300,-0.06200,0.05600,0.00600,-0.01400,0.04200,0.01800,0.07900,0.07500,0.06700
-0.00900,-0.05800,-0.04800,0.03400,0.02000,-0.05300,0.00700,-0.00600,-0.06800,0.00200,0.03000,0.02000
0.01100,-0.06400,-0.07400,0.02700,0.04300,-0.06900,0.00100,-0.04600,-0.11900,-0.02500,-0.00700,-0.01600
0.03000,-0.06300,-0.09300,0.01700,0.06200,-0.07800,-0.00400,-0.06700,-0.14000,-0.06100,-0.03200,-0.02700
0.00100,-0.09700,-0.09800,0.04800,0.04900,-0.09700,-0.01000,-0.08100,-0.15900,-0.07900,-0.04600,-0.03800
-0.01600,-0.10400,-0.08700,0.06000,0.03600,-0.09500,-0.01400,-0.07700,-0.15400,-0.07300,-0.04700,-0.04400
-0.05100,-0.11900,-0.06700,0.08500,0.00800,-0.09200,-0.01100,-0.07300,-0.17300,-0.09200,-0.04400,-0.04100
-0.03100,-0.10000,-0.07000,0.06600,0.02000,-0.08500,-0.00900,-0.07000,-0.17100,-0.08900,-0.04100,-0.03800
0.00000,-0.09100,-0.09100,0.04500,0.04600,-0.09100,-0.00500,-0.06400,-0.15200,-0.07800,-0.03800,-0.03500
-0.00400,-0.08800,-0.08400,0.04700,0.04000,-0.08600,-0.00300,-0.06800,-0.14000,-0.07300,-0.03500,-0.03200
-0.00200,-0.08300,-0.08100,0.04300,0.04000,-0.08200,0.00200,-0.07000,-0.13700,-0.06500,-0.03600,-0.02900
-0.00600,-0.08100,-0.07500,0.04400,0.03400,-0.07800,-0.00800,-0.07200,-0.14700,-0.06000,-0.04100,-0.03200
-0.00300,-0.07600,-0.07300,0.04000,0.03500,-0.07400,-0.02100,-0.07500,-0.14400,-0.05200,-0.03900,-0.03600
-0.01200,-0.07400,-0.06200,0.04300,0.02500,-0.06700,-0.01900,-0.07600,-0.14500,-0.05200,-0.04300,-0.03500
-0.04200,-0.08900,-0.04700,0.06600,0.00200,-0.06700,-0.02100,-0.07900,-0.14500,-0.05700,-0.04600,-0.03500
-0.03400,-0.10800,-0.07400,0.07100,0.02100,-0.09100,-0.01900,-0.08100,-0.14400,-0.06000,-0.04500,-0.03500
-0.02100,-0.10400,-0.08300,0.06200,0.03200,-0.09300,-0.02100,-0.08600,-0.15200,-0.06800,-0.04900,-0.03500
-0.02600,-0.10400,-0.07700,0.06500,0.02600,-0.09000,-0.01700,-0.08300,-0.16200,-0.07700,-0.05600,-0.04100
-0.01800,-0.09900,-0.08100,0.05800,0.03200,-0.09000,-0.00800,-0.07900,-0.15800,-0.08100,-0.06100,-0.04700
-0.00900,-0.10000,-0.09100,0.05500,0.04100,-0.09500,0.00000,-0.08100,-0.16700,-0.08500,-0.06700,-0.05500
-0.01400,-0.11200,-0.09700,0.06300,0.04200,-0.10400,0.01000,-0.07800,-0.18600,-0.08800,-0.07400,-0.06600
-0.02300,-0.11600,-0.09300,0.07000,0.03500,-0.10500,-0.01300,-0.09800,-0.18500,-0.09400,-0.07500,-0.06300
-0.02300,-0.11500,-0.09200,0.06900,0.03500,-0.10300,-0.02800,-0.11600,-0.18400,-0.10000,-0.07600,-0.06000
-0.02200,-0.11100,-0.08900,0.06600,0.03400,-0.10000,-0.01900,-0.10800,-0.18600,-0.10500,-0.08500,-0.05800
-0.02000,-0.11100,-0.09100,0.06600,0.03600,-0.10100,-0.01700,-0.10400,-0.18300,-0.11000,-0.09100,-0.05300
-0.01100,-0.10600,-0.09600,0.05900,0.04300,-0.10000,-0.01100,-0.09800,-0.18900,-0.11000,-0.09400,-0.06000
-0.04200,-0.13500,-0.09300,0.08900,0.02600,-0.11400,-0.00800,-0.09100,-0.20000,-0.11000,-0.09200,-0.07000
-0.04000,-0.14100,-0.10100,0.09100,0.03100,-0.12100,0.00000,-0.09900,-0.19700,-0.11000,-0.08900,-0.07000
0.00000,-0.11500,-0.11500,0.05800,0.05800,-0.11500,0.00500,-0.10600,-0.19300,-0.11000,-0.09000,-0.07000
-0.01500,-0.12300,-0.10700,0.06900,0.04600,-0.11500,-0.00100,-0.10500,-0.19000,-0.10600,-0.08500,-0.07000
-0.02400,-0.12500,-0.10000,0.07500,0.03800,-0.11200,-0.00700,-0.10300,-0.18500,-0.10500,-0.08500,-0.07000
-0.03100,-0.12700,-0.09500,0.07900,0.03200,-0.11100,-0.01200,-0.09900,-0.18500,-0.10400,-0.08400,-0.07000
-0.04600,-0.13100,-0.08500,0.08900,0.01900,-0.10800,-0.01800,-0.10000,-0.18500,-0.10200,-0.07800,-0.06500
-0.04000,-0.13100,-0.09100,0.08600,0.02600,-0.11100,-0.02000,-0.10000,-0.18500,-0.09800,-0.07200,-0.06000
-0.04100,-0.14300,-0.10200,0.09200,0.03100,-0.12200,-0.02000,-0.10200,-0.18500,-0.10300,-0.06800,-0.05700
-0.04700,-0.15700,-0.11100,0.10200,0.03200,-0.13400,-0.02000,-0.10300,-0.18600,-0.10400,-0.06100,-0.05100
-0.02600,-0.11800,-0.09300,0.07200,0.03400,-0.10500,-0.00800,-0.08800,-0.17400,-0.07500,-0.05800,-0.04800
-0.01700,-0.06900,-0.05200,0.04300,0.01800,-0.06000,0.01200,-0.07500,-0.15300,-0.06500,-0.04900,-0.03700
-0.01000,-0.05600,-0.04600,0.03300,0.01800,-0.05100,0.03300,-0.06100,-0.14500,-0.06300,-0.04200,-0.02800
0.01200,-0.02800,-0.04000,0.00900,0.02600,-0.03400,0.01100,-0.04500,-0.14000,-0.04800,-0.03200,-0.01700
0.01500,-0.02100,-0.03500,0.00300,0.02500,-0.02800,-0.02300,-0.06900,-0.13000,-0.04200,-0.02500,-0.00800
0.03300,-0.00200,-0.03500,-0.01500,0.03400,-0.01800,-0.02500,-0.08300,-0.13000,-0.04700,-0.03200,-0.00400
0.02300,0.00700,-0.01600,-0.01500,0.01900,-0.00400,-0.02500,-0.07000,-0.12200,-0.04500,-0.02500,0.01000
-0.01100,-0.07100,-0.06000,0.04100,0.02500,-0.06500,-0.02800,-0.08900,-0.14600,-0.07400,-0.05200,-0.02200
-0.01600,-0.10900,-0.09300,0.06300,0.03800,-0.10100,-0.03100,-0.09500,-0.16200,-0.09200,-0.07700,-0.04700
-0.03100,-0.12800,-0.09700,0.07900,0.03300,-0.11200,-0.02800,-0.10800,-0.18900,-0.11300,-0.09400,-0.05600
-0.03000,-0.16000,-0.13000,0.09500,0.05100,-0.14500,-0.02700,-0.12400,-0.20100,-0.13000,-0.10900,-0.08100
-0.02900,-0.16100,-0.13200,0.09500,0.05100,-0.14600,-0.01900,-0.11900,-0.20000,-0.12800,-0.11300,-0.08800
-0.02700,-0.15400,-0.12700,0.09100,0.05000,-0.14100,-0.02100,-0.11200,-0.19600,-0.12300,-0.10700,-0.08200
-0.03200,-0.16300,-0.13100,0.09800,0.05000,-0.14700,-0.01300,-0.10600,-0.17800,-0.11700,-0.11100,-0.08700
-0.02700,-0.14700,-0.12100,0.08800,0.04700,-0.13400,-0.01100,-0.10100,-0.20100,-0.12300,-0.11300,-0.08500
-0.01100,-0.13900,-0.12900,0.07600,0.05900,-0.13400,-0.01200,-0.09000,-0.14200,-0.10300,-0.09900,-0.08100
-0.05500,-0.17800,-0.12300,0.11700,0.03400,-0.15000,0.05400,-0.02500,-0.16600,-0.13300,-0.15000,-0.11100
-0.04400,-0.14700,-0.10300,0.09600,0.02900,-0.12500,0.23200,0.35400,0.05500,-0.02300,-0.11100,-0.11000
0.14100,0.16800,0.02700,-0.15500,0.05700,0.09800,0.33300,0.79300,0.60000,0.41600,0.27000,0.17500
0.48500,0.90900,0.42500,-0.69700,0.03000,0.66700,-0.04400,0.79200,1.71900,1.62800,1.20600,0.86900
0.42000,0.99900,0.57900,-0.71000,-0.08000,0.78900,-0.35900,0.10900,1.75000,1.79500,1.30800,0.92400
0.01900,0.21200,0.19300,-0.11600,-0.08700,0.20200,-0.19000,-0.35400,-0.04300,0.19400,0.23300,0.21100
-0.01900,-0.19300,-0.17500,0.10600,0.07800,-0.18400,0.04000,0.09300,-0.38400,-0.26500,-0.16300,-0.09800
-0.01700,-0.19000,-0.17400,0.10400,0.07900,-0.18200,0.11700,0.26100,-0.04100,-0.06500,-0.10000,-0.08700
-0.04500,-0.12600,-0.08100,0.08600,0.01800,-0.10300,0.07500,0.10200,-0.13100,-0.13000,-0.11000,-0.06800
-0.00700,-0.08500,-0.07800,0.04600,0.03600,-0.08100,0.05400,0.05600,-0.04300,-0.06100,-0.07300,-0.05100
-0.03100,-0.08000,-0.05000,0.05600,0.01000,-0.06500,0.04000,-0.01900,-0.10400,-0.09900,-0.08400,-0.04900
-0.02200,-0.06100,-0.04000,0.04200,0.00900,-0.05000,0.03400,-0.02700,-0.05600,-0.05600,-0.05600,-0.03200
-0.02500,-0.06600,-0.04100,0.04600,0.00800,-0.05300,0.03300,-0.04100,-0.06900,-0.05800,-0.05400,-0.03000
-0.01400,-0.05300,-0.03900,0.03400,0.01200,-0.04600,0.02400,-0.02700,-0.04300,-0.04200,-0.03900,-0.02100
-0.00600,-0.04800,-0.04100,0.02700,0.01800,-0.04400,0.02400,-0.02200,-0.02000,-0.03300,-0.03500,-0.01800
0.00200,-0.03400,-0.03600,0.01600,0.01900,-0.03500,0.01700,-0.01700,-0.02400,-0.03100,-0.03000,-0.01000
0.00000,-0.02300,-0.02400,0.01200,0.01200,-0.02300,0.01600,-0.00700,-0.00100,-0.01300,-0.02100,-0.00700
0.00700,-0.00700,-0.01400,0.00000,0.01100,-0.01000,0.01100,0.00500,0.01100,-0.00700,-0.00200,0.00600
0.04800,0.03100,-0.01700,-0.03900,0.03200,0.00700,0.00700,0.03000,0.04700,0.02300,0.02200,0.02600
0.03600,0.02800,-0.00800,-0.03200,0.02200,0.01000,0.00400,0.04200,0.06600,0.04400,0.02300,0.02500
0.02400,0.03500,0.01100,-0.03000,0.00600,0.02300,-0.00100,0.07000,0.11300,0.08000,0.04600,0.03400
0.02600,0.05600,0.03000,-0.04200,-0.00200,0.04300,-0.01100,0.10400,0.16800,0.11700,0.08400,0.06700
0.06600,0.09000,0.02400,-0.07800,0.02100,0.05600,-0.01700,0.14700,0.22800,0.15900,0.11100,0.09000
0.09300,0.14900,0.05600,-0.12100,0.01800,0.10200,-0.02700,0.20900,0.30800,0.22400,0.15800,0.12100
0.10100,0.19100,0.09000,-0.14600,0.00500,0.14100,-0.02900,0.24700,0.38000,0.28900,0.21800,0.17800
0.14900,0.24100,0.09200,-0.19600,0.02800,0.16600,-0.03200,0.27200,0.43200,0.33900,0.25700,0.20900
0.18300,0.30900,0.12600,-0.24600,0.02800,0.21700,-0.05300,0.31200,0.49100,0.39600,0.31400,0.24900
0.21200,0.34400,0.13200,-0.27800,0.04000,0.23700,-0.04600,0.32200,0.50400,0.42600,0.35200,0.28700
0.20400,0.32900,0.12500,-0.26700,0.03900,0.22700,-0.03400,0.28800,0.47300,0.40900,0.33600,0.27700
0.16300,0.28800,0.12600,-0.22600,0.01800,0.20700,-0.02500,0.23900,0.40900,0.35900,0.30100,0.24700
0.14500,0.24800,0.10300,-0.19700,0.02100,0.17500,0.00800,0.19200,0.29500,0.26400,0.24000,0.19700
0.14400,0.20300,0.05800,-0.17400,0.04300,0.13000,0.02000,0.14000,0.18000,0.16200,0.16200,0.13800
0.07500,0.09800,0.02300,-0.08700,0.02600,0.06000,0.03700,0.07000,0.06200,0.06100,0.08000,0.08600
0.02800,0.01700,-0.01100,-0.02300,0.02000,0.00200,0.04200,0.01500,-0.02300,-0.01100,0.01900,0.03300
0.04200,-0.00300,-0.04500,-0.01900,0.04400,-0.02400,0.02900,-0.00600,-0.07300,-0.05400,-0.00800,-0.00100
0.01600,-0.02000,-0.03600,0.00200,0.02700,-0.02800,0.02400,-0.02900,-0.10300,-0.07900,-0.03700,-0.00700
-0.00600,-0.02800,-0.02200,0.01700,0.00900,-0.02500,0.01500,-0.05400,-0.11300,-0.08800,-0.05400,-0.01400
-0.02100,-0.03900,-0.01800,0.03100,-0.00100,-0.02800,0.02800,-0.05600,-0.12600,-0.10200,-0.06500,-0.02200
-0.04000,-0.03400,0.00600,0.03700,-0.02300,-0.01400,0.03800,-0.05200,-0.12500,-0.10000,-0.07200,-0.03000
-0.03500,-0.03200,0.00300,0.03300,-0.01900,-0.01500,0.02900,-0.05000,-0.12200,-0.09700,-0.06400,-0.03400
-0.01400,-0.02800,-0.01500,0.02200,0.00000,-0.02100,0.02200,-0.04600,-0.12100,-0.09500,-0.06100,-0.02900
-0.01300,-0.02400,-0.01000,0.01900,-0.00100,-0.01700,0.01700,-0.04500,-0.11900,-0.09400,-0.05600,-0.02400
-0.01600,-0.03900,-0.02300,0.02700,0.00400,-0.03000,-0.00300,-0.04900,-0.11800,-0.09900,-0.05100,-0.01900
-0.05000,-0.03200,0.01900,0.04100,-0.03400,-0.00600,-0.01600,-0.05100,-0.11300,-0.10000,-0.05200,-0.01600
-0.04400,-0.02900,0.01500,0.03600,-0.02900,-0.00700,-0.01000,-0.05500,-0.11200,-0.10100,-0.05600,-0.00900
0.00500,-0.00700,-0.01200,0.00100,0.00900,-0.01000,-0.00200,-0.05800,-0.10800,-0.10000,-0.05400,-0.01800
-0.02400,-0.01700,0.00700,0.02000,-0.01500,-0.00500,0.00300,-0.06000,-0.10400,-0.09900,-0.05600,-0.03300
-0.04800,-0.04100,0.00700,0.04500,-0.02700,-0.01700,-0.00500,-0.05300,-0.11000,-0.09500,-0.05600,-0.03100
-0.05300,-0.01300,0.03900,0.03300,-0.04600,0.01300,-0.00100,-0.04500,-0.12000,-0.09500,-0.05500,-0.02900
-0.02800,-0.01900,0.00900,0.02300,-0.01800,-0.00500,0.00100,-0.06900,-0.14200,-0.10700,-0.07300,-0.03800
-0.03400,-0.04100,-0.00600,0.03800,-0.01400,-0.02300,-0.00100,-0.08400,-0.15200,-0.11100,-0.08400,-0.04600
-0.05700,-0.05300,0.00400,0.05500,-0.03000,-0.02500,0.01600,-0.08300,-0.15000,-0.12300,-0.08600,-0.05200
-0.02300,-0.04600,-0.02300,0.03500,0.00000,-0.03400,0.01300,-0.08800,-0.14900,-0.12400,-0.08300,-0.05300
-0.04600,-0.05700,-0.01100,0.05200,-0.01800,-0.03300,-0.00700,-0.09000,-0.16100,-0.13000,-0.09200,-0.06100
-0.03700,-0.03800,0.00000,0.03800,-0.01800,-0.01900,-0.00800,-0.09500,-0.18000,-0.15100,-0.11500,-0.08000
0.01400,0.01100,-0.00300,-0.01300,0.00800,0.00400,0.00800,-0.09500,-0.18200,-0.14900,-0.11500,-0.08000
-0.00800,-0.02200,-0.01400,0.01500,0.00300,-0.01800,0.01200,-0.09500,-0.18400,-0.15100,-0.11500,-0.08000
-0.03700,-0.05500,-0.01900,0.04700,-0.00900,-0.03700,0.00800,-0.09500,-0.18800,-0.15500,-0.11500,-0.08000
-0.03100,-0.06300,-0.03200,0.04700,0.00100,-0.04700,0.00200,-0.09500,-0.19000,-0.15500,-0.11500,-0.08000
-0.04100,-0.06800,-0.02700,0.05500,-0.00700,-0.04700,-0.00200,-0.09300,-0.18800,-0.15300,-0.11300,-0.07800
-0.04000,-0.06100,-0.02100,0.05100,-0.00900,-0.04100,-0.00600,-0.08900,-0.18100,-0.14800,-0.10900,-0.07300
-0.04800,-0.06900,-0.02100,0.05900,-0.01300,-0.04500,-0.01200,-0.09000,-0.17600,-0.14500,-0.10700,-0.07100
-0.05400,-0.06000,-0.00600,0.05800,-0.02400,-0.03300,0.00400,-0.09000,-0.17100,-0.14100,-0.10300,-0.06600
-0.03000,-0.05400,-0.02400,0.04200,-0.00300,-0.03800,0.01500,-0.09000,-0.16400,-0.13800,-0.10200,-0.06300
-0.05500,-0.07800,-0.02300,0.06700,-0.01600,-0.05000,0.00600,-0.09000,-0.16100,-0.13300,-0.09700,-0.05800
-0.04300,-0.07000,-0.02800,0.05700,-0.00700,-0.04900,0.00300,-0.08400,-0.16200,-0.14500,-0.10400,-0.06700
-0.02100,-0.06100,-0.04000,0.04100,0.00900,-0.05000,-0.00400,-0.07500,-0.15400,-0.15000,-0.11100,-0.07700
-0.02400,-0.05800,-0.03400,0.04100,0.00500,-0.04600,-0.00900,-0.06800,-0.14500,-0.13100,-0.09500,-0.06300
-0.03300,-0.02600,0.00700,0.02900,-0.02000,-0.00900,-0.00400,-0.05800,-0.13700,-0.11800,-0.08300,-0.05300
-0.06200,0.00200,0.06300,0.03000,-0.06300,0.03200,0.01300,-0.05300,-0.12800,-0.10200,-0.07600,-0.04500
-0.01700,0.03900,0.05700,-0.01100,-0.03700,0.04800,0.02200,-0.04700,-0.12500,-0.09600,-0.07000,-0.04100
-0.00200,0.06700,0.06900,-0.03200,-0.03500,0.06800,-0.00300,-0.04700,-0.11700,-0.09300,-0.06000,-0.04400
-0.01000,0.07100,0.08000,-0.03100,-0.04500,0.07500,-0.01800,-0.07200,-0.11500,-0.09100,-0.04400,-0.04600
0.01800,0.08300,0.06500,-0.05100,-0.02400,0.07400,-0.01100,-0.07900,-0.10400,-0.08700,-0.03800,-0.04500
-0.01300,0.03600,0.04900,-0.01200,-0.03100,0.04200,-0.00800,-0.08200,-0.11200,-0.08400,-0.04600,-0.05200
-0.03300,-0.01200,0.02000,0.02200,-0.02600,0.00400,-0.00200,-0.08700,-0.14000,-0.09700,-0.05700,-0.04800
-0.03400,-0.04800,-0.01400,0.04100,-0.00900,-0.03100,-0.00100,-0.08900,-0.15700,-0.13100,-0.08900,-0.05600
-0.03100,-0.08300,-0.05200,0.05700,0.01100,-0.06700,-0.02700,-0.11000,-0.19000,-0.16700,-0.12200,-0.09100
-0.01500,-0.06700,-0.05200,0.04100,0.01800,-0.05900,-0.04400,-0.10900,-0.18400,-0.15900,-0.12300,-0.10100
-0.06200,-0.09600,-0.03400,0.07900,-0.01400,-0.06500,-0.02800,-0.09800,-0.19900,-0.17300,-0.12900,-0.10100
-0.08200,-0.11000,-0.02800,0.09600,-0.02700,-0.06900,-0.03100,-0.09900,-0.17600,-0.15500,-0.11500,-0.09600
-0.06300,-0.11200,-0.04900,0.08800,-0.00700,-0.08000,-0.01300,-0.10100,-0.19400,-0.17500,-0.12800,-0.10500
-0.06200,-0.09700,-0.03500,0.08000,-0.01300,-0.06600,-0.01400,-0.10000,-0.17900,-0.15600,-0.11000,-0.09300
-0.06300,-0.10200,-0.03900,0.08300,-0.01200,-0.07000,0.00200,-0.08600,-0.16100,-0.16900,-0.12100,-0.09900
-0.06500,-0.10500,-0.03900,0.08600,-0.01300,-0.07200,0.11500,0.11600,-0.10300,-0.16700,-0.12700,-0.10800
-0.00200,0.01800,0.02000,-0.00800,-0.01100,0.01900,0.32500,0.55100,0.26500,0.07400,0.00600,-0.03900
0.27400,0.55200,0.27800,-0.41300,-0.00200,0.41500,0.25600,0.88100,1.06900,0.86500,0.65100,0.46400
0.48500,1.18700,0.70300,-0.83600,-0.10900,0.94500,-0.24000,0.52400,2.02400,1.97600,1.48800,1.06800
0.23100,0.77300,0.54200,-0.50200,-0.15600,0.65700,-0.37000,-0.27500,0.96500,1.13400,0.89100,0.63700
-0.03300,-0.00300,0.03000,0.01800,-0.03100,0.01300,-0.06900,-0.18700,-0.42400,-0.23200,-0.07900,-0.01200
-0.04300,-0.15500,-0.11200,0.09900,0.03500,-0.13300,0.13000,0.28200,-0.12200,-0.12800,-0.12700,-0.09100
-0.03900,-0.09200,-0.05300,0.06600,0.00800,-0.07200,0.12500,0.20100,-0.06500,-0.10700,-0.10800,-0.09600
-0.07200,-0.04700,0.02500,0.06000,-0.04800,-0.01100,0.07400,0.09800,-0.08200,-0.10300,-0.09400,-0.07700
-0.06700,-0.05000,0.01700,0.05800,-0.04200,-0.01600,0.06900,0.04200,-0.05900,-0.07300,-0.09400,-0.07100
-0.03500,-0.02400,0.01200,0.02900,-0.02300,-0.00600,0.04800,0.02000,-0.08800,-0.09700,-0.08700,-0.05900
-0.06100,0.00100,0.06200,0.03000,-0.06100,0.03200,0.04700,0.02300,-0.03800,-0.05900,-0.04300,-0.04100
-0.06000,-0.00200,0.05800,0.03100,-0.05900,0.02800,0.04300,0.00700,-0.06400,-0.08000,-0.04200,-0.03300
-0.04600,0.01600,0.06100,0.01500,-0.05400,0.03800,0.04000,0.01400,-0.02100,-0.05200,-0.02800,-0.02000
-0.03400,0.03000,0.06400,0.00200,-0.04900,0.04700,0.03800,-0.00100,-0.03200,-0.05900,-0.03100,-0.02000
-0.03500,0.03000,0.06500,0.00200,-0.05000,0.04700,0.03400,0.00300,0.00500,-0.03900,-0.01900,-0.01100
-0.03500,0.03100,0.06600,0.00100,-0.05100,0.04900,0.03400,0.00800,0.02600,-0.03000,-0.01800,-0.00700
-0.01600,0.05400,0.06900,-0.01900,-0.04300,0.06100,0.02800,0.02200,0.03600,-0.00500,-0.00300,-0.00100
-0.00200,0.08900,0.09100,-0.04400,-0.04700,0.09000,0.02500,0.04900,0.08200,0.02200,0.02700,0.00700
0.01800,0.12000,0.10300,-0.06900,-0.04300,0.11100,0.02100,0.06500,0.11200,0.03800,0.04000,0.02200
0.02300,0.12200,0.09900,-0.07200,-0.03800,0.11000,0.01700,0.09500,0.15200,0.07600,0.05700,0.03700
0.03200,0.13100,0.09900,-0.08100,-0.03400,0.11500,0.01400,0.13600,0.21800,0.12400,0.09100,0.06600
0.03300,0.17100,0.13800,-0.10200,-0.05200,0.15400,0.00800,0.18500,0.29600,0.18500,0.13600,0.10500
0.07100,0.23100,0.16000,-0.15200,-0.04500,0.19500,0.00100,0.23600,0.37900,0.25100,0.18700,0.13500
0.10200,0.28500,0.18400,-0.19400,-0.04100,0.23400,-0.00600,0.26500,0.45700,0.32000,0.24900,0.18600
0.11800,0.33200,0.21500,-0.22500,-0.04900,0.27400,-0.01400,0.30300,0.51400,0.38200,0.30500,0.23300
0.16100,0.35700,0.19600,-0.25900,-0.01800,0.27600,-0.02100,0.30800,0.55200,0.40900,0.33500,0.25200
0.16800,0.37800,0.21000,-0.27300,-0.02100,0.29400,-0.02300,0.30500,0.55600,0.40300,0.34900,0.27600
0.17200,0.37700,0.20500,-0.27400,-0.01700,0.29100,-0.01300,0.28300,0.50400,0.38100,0.34000,0.26700
0.13900,0.31800,0.17900,-0.22800,-0.02000,0.24800,0.00100,0.22800,0.39200,0.32300,0.27700,0.21600
0.06500,0.25000,0.18500,-0.15800,-0.06000,0.21800,0.01400,0.17900,0.26500,0.22600,0.19900,0.15900
0.02500,0.16300,0.13800,-0.09400,-0.05700,0.15000,0.03400,0.10400,0.14400,0.11000,0.12000,0.09500
0.01200,0.11800,0.10600,-0.06500,-0.04800,0.11200,0.03900,0.05300,0.03500,0.01600,0.05200,0.04100
-0.01300,0.08300,0.09600,-0.03500,-0.05500,0.08900,0.03200,0.01400,-0.03900,-0.04100,0.01100,0.00300
-0.02000,0.04000,0.06100,-0.01000,-0.04100,0.05000,0.02800,-0.02700,-0.08400,-0.07700,-0.02800,-0.02600
-0.04100,0.01500,0.05600,0.01300,-0.04900,0.03500,0.02100,-0.04500,-0.11000,-0.10500,-0.05000,-0.04100
-0.07200,-0.01900,0.05300,0.04500,-0.06300,0.01700,0.01600,-0.05200,-0.11900,-0.12700,-0.06200,-0.04100
-0.06100,-0.00900,0.05200,0.03500,-0.05600,0.02100,0.01500,-0.04900,-0.11400,-0.13100,-0.06600,-0.03500
-0.03900,0.00800,0.04700,0.01600,-0.04300,0.02800,0.01400,-0.05000,-0.11500,-0.11700,-0.06500,-0.02900
-0.03400,0.01800,0.05200,0.00800,-0.04300,0.03500,0.01600,-0.05000,-0.11500,-0.11800,-0.06300,-0.02600
-0.08400,-0.00800,0.07700,0.04600,-0.08000,0.03400,0.01400,-0.04900,-0.11500,-0.12500,-0.05900,-0.01600
-0.09000,-0.01700,0.07300,0.05300,-0.08100,0.02800,0.01500,-0.04600,-0.11500,-0.11600,-0.06100,-0.02100
-0.06100,0.01000,0.07100,0.02600,-0.06600,0.04000,0.01500,-0.04400,-0.11000,-0.11300,-0.05600,-0.04100
-0.05200,0.01500,0.06700,0.01800,-0.06000,0.04100,0.00300,-0.04600,-0.11100,-0.10600,-0.05500,-0.03800
-0.00700,0.05900,0.06600,-0.02600,-0.03700,0.06200,0.02200,-0.04500,-0.10800,-0.10100,-0.05500,-0.03400
0.01300,0.07400,0.06200,-0.04400,-0.02500,0.06800,0.03200,-0.04500,-0.10600,-0.10300,-0.05000,-0.03100
-0.01500,0.03900,0.05500,-0.01200,-0.03500,0.04700,0.01300,-0.04700,-0.10300,-0.10600,-0.05100,-0.02700
-0.04900,0.02500,0.07400,0.01100,-0.06100,0.04900,0.00700,-0.05200,-0.11000,-0.10500,-0.05000,-0.02400
-0.02700,0.04800,0.07500,-0.01100,-0.05200,0.06100,0.00200,-0.05400,-0.11900,-0.10600,-0.06500,-0.04100
-0.03100,0.04200,0.07300,-0.00600,-0.05200,0.05700,-0.00100,-0.05600,-0.12100,-0.12000,-0.08600,-0.06600
-0.05300,0.01400,0.06700,0.02000,-0.06100,0.04000,-0.00400,-0.05300,-0.13400,-0.12500,-0.08800,-0.06700
-0.06800,0.01000,0.07800,0.02900,-0.07300,0.04400,-0.01000,-0.06000,-0.14300,-0.13100,-0.09100,-0.07900
-0.07800,0.00400,0.08200,0.03600,-0.08000,0.04300,-0.00800,-0.08700,-0.16100,-0.14200,-0.09000,-0.08600
-0.05300,-0.00100,0.05200,0.02700,-0.05300,0.02500,-0.00500,-0.09100,-0.16700,-0.14700,-0.09000,-0.07700
-0.06900,-0.01900,0.05000,0.04400,-0.05900,0.01500,-0.00400,-0.08900,-0.16400,-0.15300,-0.09700,-0.07600
-0.03700,0.01000,0.04600,0.01300,-0.04200,0.02800,-0.00100,-0.09500,-0.17100,-0.15500,-0.10000,-0.06900
-0.03700,0.00700,0.04400,0.01400,-0.04100,0.02600,0.00100,-0.09500,-0.16900,-0.15500,-0.10300,-0.06500
-0.06600,-0.02600,0.04000,0.04600,-0.05300,0.00700,-0.00400,-0.09400,-0.17200,-0.15500,-0.10600,-0.07000
-0.03700,0.00500,0.04200,0.01600,-0.03900,0.02300,-0.00500,-0.09000,-0.17500,-0.15500,-0.10400,-0.07000
-0.07000,-0.00500,0.06500,0.03700,-0.06700,0.02900,-0.00500,-0.09000,-0.17500,-0.15500,-0.10800,-0.07700
-0.09500,-0.03600,0.05900,0.06500,-0.07700,0.01100,-0.01000,-0.09000,-0.17400,-0.15000,-0.11200,-0.08500
-0.08900,-0.03600,0.05300,0.06200,-0.07000,0.00800,-0.01000,-0.09000,-0.17600,-0.15100,-0.10800,-0.08800
-0.06500,-0.02000,0.04600,0.04200,-0.05500,0.01300,-0.00900,-0.09100,-0.17300,-0.14800,-0.10600,-0.08900
-0.07800,-0.03900,0.03900,0.05900,-0.05900,0.00000,-0.00500,-0.08600,-0.17800,-0.15600,-0.10200,-0.09500
-0.11000,-0.07700,0.03400,0.09300,-0.07200,-0.02100,-0.00200,-0.08500,-0.18900,-0.16900,-0.10000,-0.10400
-0.07500,-0.05100,0.02400,0.06300,-0.04900,-0.01300,0.00000,-0.07900,-0.18000,-0.16000,-0.09800,-0.09400
-0.08300,-0.03700,0.04600,0.06000,-0.06400,0.00400,0.00500,-0.07800,-0.17600,-0.15500,-0.08900,-0.08600
-0.08800,-0.02300,0.06500,0.05600,-0.07600,0.02000,0.00300,-0.07200,-0.16300,-0.14700,-0.08200,-0.07400
-0.06200,0.00800,0.07100,0.02700,-0.06700,0.03900,0.02100,-0.06000,-0.13100,-0.13400,-0.06700,-0.05100
-0.05600,0.04900,0.10500,0.00400,-0.08100,0.07700,0.03800,-0.04300,-0.12300,-0.12400,-0.05400,-0.03900
-0.03700,0.09500,0.13200,-0.02900,-0.08500,0.11400,0.02800,-0.04100,-0.12600,-0.10600,-0.05500,-0.03100
-0.04600,0.08600,0.13200,-0.02000,-0.08900,0.10900,0.02100,-0.08900,-0.12600,-0.09400,-0.05700,-0.03300
-0.02400,0.09700,0.12100,-0.03700,-0.07300,0.10900,0.01000,-0.09700,-0.13300,-0.08400,-0.06000,-0.03500
-0.01300,0.08000,0.09300,-0.03400,-0.05300,0.08700,0.00300,-0.07300,-0.13200,-0.09700,-0.06000,-0.03600
-0.04400,0.00500,0.05000,0.01900,-0.04700,0.02700,-0.00800,-0.07800,-0.14100,-0.12500,-0.06500,-0.04600
-0.05300,-0.04600,0.00700,0.04900,-0.03000,-0.01900,-0.01400,-0.09700,-0.17400,-0.15300,-0.09300,-0.08000
-0.07500,-0.06600,0.00900,0.07100,-0.04200,-0.02800,-0.02100,-0.10900,-0.19500,-0.18100,-0.11700,-0.10200
-0.07300,-0.07900,-0.00600,0.07600,-0.03400,-0.04200,-0.02600,-0.10400,-0.19100,-0.16700,-0.11200,-0.09800
-0.08600,-0.10500,-0.01900,0.09600,-0.03300,-0.06200,-0.01600,-0.09700,-0.21300,-0.17800,-0.11900,-0.10100
-0.08100,-0.09000,-0.00900,0.08600,-0.03600,-0.05000,-0.02200,-0.09400,-0.19100,-0.16000,-0.11200,-0.09100
-0.06400,-0.09700,-0.03300,0.08100,-0.01500,-0.06400,-0.00700,-0.08500,-0.20100,-0.17100,-0.13100,-0.09900
-0.06300,-0.08100,-0.01800,0.07200,-0.02200,-0.04900,-0.01900,-0.09100,-0.18900,-0.16000,-0.12000,-0.09300
-0.07100,-0.08600,-0.01500,0.07900,-0.02800,-0.05000,0.01700,-0.09600,-0.17200,-0.15500,-0.12600,-0.11900
-0.09100,-0.09900,-0.00800,0.09500,-0.04100,-0.05300,0.12200,0.08000,-0.12400,-0.17000,-0.14400,-0.13400
-0.03100,0.00900,0.04000,0.01100,-0.03500,0.02400,0.31100,0.47900,0.20300,0.02200,-0.02300,-0.07100
0.21700,0.50300,0.28600,-0.36000,-0.03500,0.39400,0.29700,0.84500,0.96100,0.74300,0.56700,0.36900
0.46200,1.21100,0.74900,-0.83700,-0.14400,0.98000,-0.23300,0.47000,1.89500,1.87800,1.45400,1.02200
0.22800,0.87300,0.64500,-0.55100,-0.20900,0.75900,-0.44100,-0.36200,0.98800,1.21600,0.98700,0.69100
-0.04400,0.02700,0.07100,0.00900,-0.05800,0.04900,-0.10500,-0.23400,-0.39300,-0.20700,-0.03700,-0.00500
-0.02000,-0.15100,-0.13100,0.08600,0.05500,-0.14100,0.12600,0.27900,-0.17000,-0.18100,-0.12500,-0.11100
-0.03100,-0.08400,-0.05300,0.05800,0.01200,-0.06800,0.13300,0.21300,-0.07200,-0.10900,-0.09700,-0.10800
-0.06300,-0.04200,0.02100,0.05200,-0.04200,-0.01000,0.07800,0.08400,-0.09400,-0.13000,-0.09200,-0.07900
-0.08300,-0.04500,0.03900,0.06400,-0.06100,-0.00300,0.06400,0.01500,-0.05900,-0.09900,-0.07600,-0.06000
-0.08000,-0.02800,0.05300,0.05400,-0.06600,0.01200,0.05500,-0.01900,-0.09700,-0.12200,-0.08400,-0.06200
-0.06200,-0.00800,0.05500,0.03500,-0.05800,0.02300,0.04100,-0.03000,-0.05500,-0.08000,-0.06400,-0.05300
-0.04900,-0.01900,0.03100,0.03400,-0.04000,0.00600,0.03100,-0.04500,-0.08400,-0.09700,-0.07200,-0.05600
-0.08000,-0.02000,0.06000,0.05000,-0.06900,0.01900,0.02900,-0.01700,-0.05400,-0.07800,-0.05900,-0.04800
-0.08400,-0.00500,0.07900,0.04400,-0.08100,0.03700,0.03100,-0.02000,-0.05500,-0.08700,-0.06000,-0.05000
-0.03000,0.02600,0.05600,0.00200,-0.04300,0.04100,0.02900,-0.01700,-0.02300,-0.06200,-0.03700,-0.04000
-0.04800,0.00500,0.05300,0.02100,-0.05000,0.02900,0.03000,0.00000,-0.00200,-0.04100,-0.01800,-0.02900
-0.02900,0.00800,0.03800,0.01000,-0.03400,0.02300,0.02900,0.01100,0.01800,-0.02400,-0.00800,-0.02100
0.01300,0.05100,0.03800,-0.03200,-0.01300,0.04500,0.02300,0.03100,0.04800,0.00700,0.00800,-0.00700
-0.00800,0.08000,0.08800,-0.03600,-0.04800,0.08400,0.03800,0.06400,0.08800,0.03100,0.02700,0.00200
-0.00100,0.08600,0.08700,-0.04300,-0.04400,0.08600,0.05100,0.08600,0.14800,0.05800,0.04300,0.01800
0.00500,0.11900,0.11500,-0.06200,-0.05500,0.11700,0.03900,0.12000,0.20500,0.10800,0.08800,0.05700
0.01200,0.17200,0.16000,-0.09200,-0.07400,0.16600,0.03600,0.17300,0.27700,0.16300,0.13000,0.07600
0.04300,0.19800,0.15500,-0.12100,-0.05600,0.17600,0.02600,0.22100,0.36800,0.23600,0.17900,0.11300
0.09100,0.25600,0.16600,-0.17400,-0.03800,0.21100,0.02300,0.26700,0.45200,0.31500,0.25000,0.17100
0.12300,0.30600,0.18300,-0.21500,-0.03000,0.24400,0.01200,0.28900,0.49800,0.36200,0.28700,0.19600
0.10800,0.32700,0.21900,-0.21700,-0.05600,0.27300,-0.00600,0.31800,0.53800,0.40300,0.31800,0.22900
0.12500,0.36300,0.23800,-0.24400,-0.05700,0.30000,0.00000,0.31600,0.54900,0.42500,0.34800,0.25100
0.15000,0.37000,0.22000,-0.26000,-0.03500,0.29500,0.00400,0.27200,0.50100,0.39800,0.33800,0.24200
0.11000,0.30800,0.19800,-0.20900,-0.04400,0.25300,0.03200,0.22700,0.39600,0.32200,0.29000,0.21200
0.09300,0.22900,0.13600,-0.16100,-0.02200,0.18200,0.04600,0.15500,0.24800,0.20200,0.20200,0.14600
0.05700,0.14200,0.08500,-0.10000,-0.01400,0.11300,0.05600,0.10400,0.12200,0.08700,0.10900,0.07900
-0.01300,0.05800,0.07100,-0.02200,-0.04300,0.06400,0.07700,0.04500,0.01700,0.00100,0.03900,0.02200
-0.00500,0.01900,0.02400,-0.00700,-0.01500,0.02100,0.06400,-0.00900,-0.06000,-0.05800,-0.00500,-0.00500
-0.00100,-0.00500,-0.00400,0.00300,0.00200,-0.00500,0.06000,-0.02700,-0.09300,-0.08700,-0.03000,-0.02400
-0.04300,-0.03700,0.00600,0.04000,-0.02400,-0.01500,0.05300,-0.06500,-0.13000,-0.12400,-0.05900,-0.05200
-0.07100,-0.05700,0.01400,0.06400,-0.04300,-0.02100,0.04500,-0.06600,-0.14700,-0.14000,-0.07400,-0.05900
-0.06500,-0.06800,-0.00300,0.06700,-0.03100,-0.03500,0.04500,-0.06300,-0.14800,-0.13700,-0.08100,-0.07000
-0.07800,-0.09800,-0.02000,0.08800,-0.02900,-0.05900,0.04400,-0.06700,-0.14700,-0.13700,-0.08100,-0.08800
-0.07000,-0.08700,-0.01600,0.07900,-0.02700,-0.05100,0.04500,-0.06400,-0.14000,-0.13000,-0.07600,-0.08900
-0.06200,-0.06700,-0.00500,0.06500,-0.02900,-0.03500,0.04500,-0.06600,-0.13900,-0.12900,-0.07400,-0.08200
-0.07500,-0.06900,0.00600,0.07200,-0.04000,-0.03100,0.04400,-0.06000,-0.13400,-0.12400,-0.06900,-0.07900
-0.05200,-0.06100,-0.00900,0.05700,-0.02100,-0.03500,0.03900,-0.05700,-0.13000,-0.12000,-0.06500,-0.07300
-0.05100,-0.05600,-0.00500,0.05400,-0.02300,-0.03100,0.03400,-0.05300,-0.13200,-0.12200,-0.06700,-0.07000
-0.04800,-0.04900,-0.00100,0.04900,-0.02300,-0.02500,0.03000,-0.05000,-0.13600,-0.12500,-0.07100,-0.07500
-0.05100,-0.04200,0.00900,0.04700,-0.03000,-0.01600,0.02500,-0.04400,-0.13500,-0.12500,-0.07000,-0.07500
-0.06600,-0.03600,0.03000,0.05100,-0.04800,-0.00300,0.02000,-0.05600,-0.13900,-0.12500,-0.07400,-0.07500
-0.04700,-0.03000,0.01700,0.03900,-0.03200,-0.00600,0.01600,-0.07300,-0.14100,-0.12500,-0.07500,-0.07500
-0.05600,-0.04000,0.01600,0.04700,-0.03600,-0.01200,0.01500,-0.07300,-0.14000,-0.12500,-0.07500,-0.07500
-0.06600,-0.06100,0.00600,0.06400,-0.03600,-0.02800,0.01500,-0.07600,-0.14800,-0.13100,-0.07900,-0.07700
-0.05000,-0.07600,-0.02600,0.06400,-0.01200,-0.05100,0.01500,-0.07400,-0.15700,-0.13800,-0.08100,-0.08300
-0.05900,-0.08900,-0.03100,0.07400,-0.01400,-0.05900,0.01500,-0.07900,-0.16800,-0.14700,-0.07900,-0.08700
-0.02800,-0.05600,-0.02900,0.04200,0.00100,-0.04200,0.01500,-0.09600,-0.17000,-0.15800,-0.08600,-0.09000
-0.04300,-0.06600,-0.02300,0.05500,-0.00900,-0.04400,0.01500,-0.10200,-0.17200,-0.16500,-0.10100,-0.09500
-0.08500,-0.10800,-0.02300,0.09700,-0.03100,-0.06600,0.01500,-0.10800,-0.18100,-0.16800,-0.10200,-0.09400
-0.07600,-0.09400,-0.01800,0.08500,-0.02900,-0.05600,0.01500,-0.11000,-0.18700,-0.17200,-0.11000,-0.10200
-0.07400,-0.09700,-0.02300,0.08500,-0.02500,-0.06000,0.01500,-0.11000,-0.19700,-0.17800,-0.12100,-0.11600
-0.04200,-0.09100,-0.04800,0.06700,0.00300,-0.06900,0.01500,-0.10500,-0.20000,-0.18000,-0.12000,-0.11400
-0.06600,-0.09000,-0.02400,0.07800,-0.02100,-0.05600,0.01100,-0.10400,-0.20100,-0.18100,-0.12000,-0.11600
-0.05800,-0.09100,-0.03300,0.07500,-0.01200,-0.06200,0.01000,-0.12100,-0.20500,-0.18500,-0.11700,-0.12000
-0.03500,-0.08500,-0.05000,0.06000,0.00800,-0.06700,0.00700,-0.12600,-0.20500,-0.18600,-0.11400,-0.12000
-0.07300,-0.11100,-0.03800,0.09200,-0.01700,-0.07400,0.00500,-0.12400,-0.20600,-0.19000,-0.11600,-0.11800
-0.07200,-0.11400,-0.04100,0.09300,-0.01500,-0.07700,0.00500,-0.12500,-0.20400,-0.18800,-0.11900,-0.11400
-0.07500,-0.10900,-0.03400,0.09300,-0.02000,-0.07100,0.00500,-0.12500,-0.20100,-0.18300,-0.12000,-0.11600
-0.06900,-0.10500,-0.03600,0.08800,-0.01600,-0.07000,0.00400,-0.12500,-0.19800,-0.18100,-0.12000,-0.11100
-0.07300,-0.10200,-0.02900,0.08800,-0.02200,-0.06600,0.00500,-0.12000,-0.19500,-0.17500,-0.12000,-0.11000
-0.07100,-0.09700,-0.02700,0.08400,-0.02200,-0.06200,0.01800,-0.11500,-0.19500,-0.17700,-0.12100,-0.11000
-0.06700,-0.08700,-0.02000,0.07700,-0.02400,-0.05300,0.02800,-0.11200,-0.18800,-0.17900,-0.11800,-0.10100
-0.05100,-0.07200,-0.02000,0.06200,-0.01500,-0.04600,0.02300,-0.10600,-0.18200,-0.16700,-0.10800,-0.08900
-0.05300,-0.05200,0.00100,0.05300,-0.02700,-0.02600,0.02700,-0.10200,-0.17300,-0.15500,-0.08700,-0.07700
-0.08300,-0.02600,0.05700,0.05400,-0.07000,0.01600,0.04200,-0.08300,-0.16000,-0.15000,-0.07200,-0.06800
-0.01400,0.05200,0.06600,-0.01900,-0.04000,0.05800,0.02300,-0.06500,-0.15400,-0.14000,-0.06900,-0.05600
0.00200,0.05400,0.05200,-0.02900,-0.02500,0.05300,-0.00500,-0.10100,-0.15500,-0.13300,-0.07100,-0.05000
-0.02400,0.02900,0.05300,-0.00300,-0.03900,0.04100,-0.01600,-0.13000,-0.15600,-0.13300,-0.06900,-0.02900
-0.01800,0.00800,0.02700,0.00500,-0.02200,0.01800,-0.01500,-0.12600,-0.15100,-0.13600,-0.07100,-0.03400
-0.04000,-0.06200,-0.02100,0.05100,-0.00900,-0.04100,-0.01400,-0.13300,-0.17700,-0.15500,-0.09000,-0.07300
-0.07300,-0.10400,-0.03200,0.08900,-0.02000,-0.06800,-0.01600,-0.13500,-0.19900,-0.17000,-0.10600,-0.09100
-0.09500,-0.15200,-0.05700,0.12400,-0.01800,-0.10500,-0.01300,-0.13100,-0.21600,-0.19700,-0.13900,-0.11800
-0.08800,-0.15400,-0.06600,0.12200,-0.01100,-0.11000,-0.01700,-0.13000,-0.22400,-0.20400,-0.14500,-0.12400
-0.09500,-0.16200,-0.06700,0.12900,-0.01400,-0.11400,-0.00700,-0.12500,-0.23900,-0.21900,-0.15700,-0.13500
-0.06800,-0.15600,-0.08800,0.11300,0.01000,-0.12200,-0.01300,-0.12400,-0.22800,-0.20400,-0.14800,-0.12700
-0.07100,-0.15600,-0.08500,0.11400,0.00800,-0.12100,0.00100,-0.12000,-0.22200,-0.20300,-0.14800,-0.12900
-0.07400,-0.15100,-0.07700,0.11300,0.00200,-0.11400,-0.01600,-0.11900,-0.23000,-0.20100,-0.14400,-0.12300
-0.05900,-0.13000,-0.07100,0.09500,0.00600,-0.10000,-0.01700,-0.13700,-0.19600,-0.17800,-0.13100,-0.11600
-0.08400,-0.15500,-0.07100,0.12000,-0.00600,-0.11200,0.08000,-0.01200,-0.19300,-0.22300,-0.17400,-0.16300
-0.05400,-0.08300,-0.03000,0.06900,-0.01200,-0.05600,0.26100,0.34900,0.06300,-0.07500,-0.09700,-0.13400
0.15000,0.27500,0.12400,-0.21300,0.01300,0.19900,0.35100,0.79700,0.67400,0.45400,0.33200,0.18100
0.47300,1.04500,0.57300,-0.75900,-0.05000,0.80900,-0.10600,0.67000,1.77200,1.66400,1.28600,0.89900
0.36500,1.02800,0.66300,-0.69700,-0.15000,0.84600,-0.46700,-0.22000,1.42900,1.56100,1.22800,0.86000
0.01600,0.11900,0.10400,-0.06800,-0.04400,0.11100,-0.19600,-0.38300,-0.24200,-0.02200,0.10100,0.07900
-0.03600,-0.21100,-0.17500,0.12300,0.07000,-0.19300,0.07800,0.18300,-0.30400,-0.28300,-0.18400,-0.16300
-0.01900,-0.14400,-0.12500,0.08200,0.05300,-0.13400,0.11800,0.21100,-0.06100,-0.11800,-0.10900,-0.13600
0.00100,-0.07900,-0.08000,0.03900,0.04100,-0.08000,0.08800,0.07300,-0.16500,-0.17200,-0.12000,-0.11500
0.00900,-0.04100,-0.05000,0.01700,0.03000,-0.04600,0.07600,0.02800,-0.08700,-0.10700,-0.08100,-0.09600
-0.06300,-0.06900,-0.00600,0.06700,-0.02800,-0.03800,0.05900,-0.02400,-0.14300,-0.14900,-0.09300,-0.10000
-0.07400,-0.06200,0.01200,0.06800,-0.04200,-0.02500,0.04200,-0.04200,-0.09600,-0.10900,-0.07200,-0.08400
-0.05600,-0.06300,-0.00700,0.06000,-0.02500,-0.03500,0.03100,-0.06100,-0.11100,-0.12500,-0.08200,-0.09400
-0.06200,-0.05900,0.00300,0.06100,-0.03300,-0.02800,0.02900,-0.04400,-0.09800,-0.10900,-0.07100,-0.08500
-0.04900,-0.05700,-0.00800,0.05400,-0.02100,-0.03200,0.03000,-0.04500,-0.07600,-0.10500,-0.07100,-0.08600
-0.02800,-0.03700,-0.00900,0.03300,-0.00900,-0.02300,0.02500,-0.03600,-0.05500,-0.10200,-0.07000,-0.08600
-0.00200,-0.02200,-0.02000,0.01200,0.00900,-0.02100,0.02500,-0.02800,-0.04300,-0.08600,-0.05800,-0.07400
-0.02600,-0.01600,0.01100,0.02100,-0.01800,-0.00300,0.02500,-0.02200,-0.02400,-0.06700,-0.04100,-0.04700
-0.03600,-0.00600,0.03000,0.02000,-0.03300,0.01200,0.02500,0.00100,0.01400,-0.04100,-0.02900,-0.03100
-0.02100,0.00400,0.02500,0.00800,-0.02300,0.01400,0.02500,0.02800,0.05600,-0.01100,-0.00300,-0.02100
-0.03100,0.02200,0.05300,0.00400,-0.04200,0.03700,0.02500,0.06300,0.10500,0.02300,0.02700,-0.00700
0.02400,0.05700,0.03300,-0.04100,-0.00500,0.04500,0.02500,0.10200,0.14700,0.05000,0.04100,0.01100
0.05900,0.11100,0.05200,-0.08500,0.00300,0.08100,0.02500,0.15300,0.22300,0.11000,0.08500,0.04000
0.06800,0.15700,0.08900,-0.11300,-0.01100,0.12300,0.02000,0.21800,0.30900,0.18100,0.14700,0.07300
0.12100,0.22100,0.09900,-0.17100,0.01100,0.16000,0.01300,0.26500,0.39400,0.25400,0.20200,0.12000
0.13300,0.24800,0.11600,-0.19100,0.00800,0.18200,0.00600,0.30000,0.45300,0.30900,0.24700,0.16100
0.14400,0.27400,0.13100,-0.20900,0.00600,0.20200,-0.00200,0.32400,0.49700,0.35600,0.29700,0.19200
0.17200,0.32900,0.15700,-0.25100,0.00700,0.24300,-0.01000,0.31900,0.50600,0.37800,0.32500,0.22100
0.16100,0.32000,0.16000,-0.24100,0.00000,0.24000,-0.01200,0.29000,0.46400,0.36300,0.32500,0.22600
0.15100,0.28200,0.13100,-0.21700,0.01000,0.20600,0.00700,0.23600,0.37700,0.30200,0.28400,0.19700
0.12300,0.21400,0.09100,-0.16900,0.01600,0.15200,0.02600,0.15800,0.23400,0.18400,0.19500,0.12600
0.04700,0.11700,0.06900,-0.08200,-0.01100,0.09300,0.03200,0.07800,0.10400,0.07800,0.11000,0.06600
0.02500,0.05800,0.03300,-0.04200,-0.00500,0.04500,0.02900,0.02400,-0.00400,-0.01400,0.02900,0.02100
0.03700,0.02000,-0.01700,-0.02800,0.02600,0.00200,0.02300,-0.02300,-0.09200,-0.09700,-0.02100,-0.03000
-0.00700,-0.03400,-0.02700,0.02100,0.01000,-0.03000,0.02000,-0.07000,-0.14300,-0.14000,-0.04500,-0.06200
-0.04200,-0.06600,-0.02400,0.05500,-0.00900,-0.04500,0.01500,-0.08800,-0.17600,-0.16000,-0.07300,-0.07900
-0.05700,-0.08200,-0.02600,0.07000,-0.01500,-0.05400,0.01000,-0.09500,-0.19300,-0.16800,-0.08800,-0.08200
-0.05700,-0.10000,-0.04300,0.07800,-0.00700,-0.07100,0.01500,-0.10500,-0.20100,-0.17900,-0.09000,-0.08900
-0.04800,-0.10100,-0.05300,0.07400,0.00300,-0.07600,0.02300,-0.10200,-0.19700,-0.17800,-0.09000,-0.08900
-0.03300,-0.07600,-0.04300,0.05500,0.00600,-0.06000,0.02000,-0.09600,-0.19200,-0.17100,-0.09000,-0.08300
-0.03100,-0.07500,-0.04400,0.05300,0.00700,-0.06000,0.01800,-0.09300,-0.18900,-0.16900,-0.09000,-0.08300
-0.03900,-0.07700,-0.03800,0.05800,0.00000,-0.05700,0.01500,-0.08600,-0.18500,-0.16400,-0.09000,-0.07400
-0.04100,-0.07600,-0.03400,0.05900,-0.00300,-0.05500,0.01200,-0.08600,-0.18300,-0.16100,-0.08700,-0.08200
-0.05800,-0.08200,-0.02400,0.07000,-0.01700,-0.05300,0.01000,-0.09000,-0.17900,-0.15700,-0.08400,-0.09600
-0.03500,-0.05600,-0.02100,0.04600,-0.00700,-0.03900,0.00700,-0.08900,-0.17700,-0.15400,-0.08100,-0.09500
0.00400,-0.05700,-0.06100,0.02700,0.03300,-0.05900,0.00400,-0.09700,-0.17400,-0.14900,-0.07800,-0.09300
-0.03300,-0.06700,-0.03400,0.05000,0.00100,-0.05000,0.00100,-0.10600,-0.17600,-0.15100,-0.07500,-0.09100
-0.09400,-0.07500,0.01900,0.08400,-0.05700,-0.02800,-0.00100,-0.10700,-0.17400,-0.14900,-0.07700,-0.08900
-0.07200,-0.08300,-0.01000,0.07700,-0.03100,-0.04600,-0.00500,-0.11100,-0.17700,-0.15300,-0.07900,-0.09300
-0.03500,-0.07700,-0.04200,0.05700,0.00400,-0.06000,-0.00400,-0.11300,-0.18800,-0.16500,-0.08800,-0.09500
-0.02700,-0.07200,-0.04500,0.05000,0.01000,-0.05800,0.00000,-0.11700,-0.19600,-0.16600,-0.09500,-0.09500
-0.04800,-0.08600,-0.03900,0.06700,-0.00400,-0.06200,0.00000,-0.12800,-0.21000,-0.18200,-0.10100,-0.11000
-0.07200,-0.11000,-0.03800,0.09100,-0.01700,-0.07400,0.00000,-0.13100,-0.21700,-0.19100,-0.10500,-0.12000
-0.07700,-0.10800,-0.03000,0.09300,-0.02300,-0.06900,0.00000,-0.12900,-0.23000,-0.19200,-0.11200,-0.12700
-0.06400,-0.09800,-0.03300,0.08100,-0.01500,-0.06500,0.00000,-0.14500,-0.24200,-0.21300,-0.12700,-0.13500
-0.05800,-0.10400,-0.04700,0.08100,-0.00500,-0.07500,-0.00400,-0.15100,-0.23900,-0.22200,-0.13200,-0.13500
-0.09300,-0.13800,-0.04400,0.11600,-0.02400,-0.09100,-0.00500,-0.14900,-0.24000,-0.21900,-0.13700,-0.13800
-0.08300,-0.14200,-0.05900,0.11300,-0.01200,-0.10000,-0.00500,-0.15000,-0.24700,-0.22100,-0.14100,-0.14000
-0.07200,-0.13800,-0.06600,0.10500,-0.00300,-0.10200,-0.00500,-0.15000,-0.25100,-0.21900,-0.14300,-0.14000
-0.09400,-0.14200,-0.04800,0.11800,-0.02300,-0.09500,-0.00500,-0.14900,-0.24900,-0.22000,-0.14600,-0.14000
-0.07100,-0.13800,-0.06700,0.10500,-0.00200,-0.10200,-0.00600,-0.16200,-0.26100,-0.22000,-0.14900,-0.15100
-0.05600,-0.13900,-0.08300,0.09800,0.01400,-0.11100,-0.01100,-0.17700,-0.26600,-0.22000,-0.15000,-0.15700
-0.07300,-0.13200,-0.05800,0.10300,-0.00700,-0.09500,-0.01600,-0.17300,-0.26400,-0.22000,-0.15300,-0.15400
-0.05800,-0.13200,-0.07300,0.09500,0.00800,-0.10200,-0.02000,-0.17100,-0.26900,-0.21800,-0.15600,-0.15600
-0.05400,-0.14000,-0.08600,0.09700,0.01600,-0.11300,-0.02600,-0.16700,-0.27000,-0.22900,-0.15200,-0.15400
-0.06300,-0.13700,-0.07400,0.10000,0.00600,-0.10500,-0.02000,-0.16600,-0.27000,-0.23200,-0.14600,-0.15600
-0.06000,-0.13100,-0.07100,0.09600,0.00600,-0.10100,-0.01600,-0.16200,-0.26300,-0.22300,-0.13900,-0.15200
-0.06400,-0.12500,-0.06000,0.09500,-0.00100,-0.09200,-0.00800,-0.16000,-0.25300,-0.21500,-0.13300,-0.14600
-0.05100,-0.11100,-0.06000,0.08100,0.00400,-0.08500,-0.00500,-0.15900,-0.24300,-0.20900,-0.12600,-0.14100
-0.04700,-0.08100,-0.03500,0.06400,-0.00600,-0.05800,0.00500,-0.14400,-0.23100,-0.19300,-0.12100,-0.13400
-0.06100,-0.05600,0.00500,0.05900,-0.03300,-0.02500,0.03700,-0.12200,-0.21200,-0.17500,-0.10900,-0.13100
-0.05600,-0.04500,0.01200,0.05000,-0.03300,-0.01600,0.02100,-0.10300,-0.20400,-0.17400,-0.10200,-0.11700
-0.01300,-0.01500,-0.00200,0.01400,-0.00500,-0.00900,-0.02200,-0.12900,-0.20500,-0.17600,-0.10500,-0.10600
0.02900,0.03200,0.00300,-0.03000,0.01300,0.01700,-0.03300,-0.15400,-0.20600,-0.17900,-0.10700,-0.11300
0.02300,-0.00500,-0.02800,-0.00900,0.02500,-0.01700,-0.02200,-0.14900,-0.20300,-0.17900,-0.10900,-0.11600
-0.01700,-0.08300,-0.06600,0.05000,0.02500,-0.07500,-0.00400,-0.15000,-0.20800,-0.18400,-0.11100,-0.12100
-0.02900,-0.09400,-0.06500,0.06200,0.01800,-0.07900,-0.01400,-0.15600,-0.22700,-0.19200,-0.12200,-0.13800
-0.04100,-0.13800,-0.09600,0.09000,0.02800,-0.11700,-0.03200,-0.16500,-0.26800,-0.22500,-0.15600,-0.16800
-0.06500,-0.15400,-0.09000,0.11000,0.01300,-0.12200,-0.03800,-0.16600,-0.27100,-0.23300,-0.16400,-0.17400
-0.06100,-0.16500,-0.10400,0.11400,0.02200,-0.13500,-0.03200,-0.16200,-0.26500,-0.23100,-0.16800,-0.17800
-0.05800,-0.19000,-0.13100,0.12500,0.03700,-0.16000,-0.03700,-0.17400,-0.28600,-0.24500,-0.17500,-0.18600
-0.05700,-0.17600,-0.11900,0.11700,0.03100,-0.14700,-0.03400,-0.19100,-0.27700,-0.24400,-0.17900,-0.19300
-0.04300,-0.17500,-0.13200,0.10900,0.04500,-0.15300,-0.03400,-0.18000,-0.29500,-0.25100,-0.18200,-0.18600
-0.04000,-0.15300,-0.11300,0.09700,0.03700,-0.13300,-0.02500,-0.16500,-0.22800,-0.21200,-0.14500,-0.15400
-0.04700,-0.17200,-0.12400,0.11000,0.03900,-0.14800,0.03600,-0.09800,-0.25100,-0.27100,-0.19400,-0.20200
-0.05700,-0.14800,-0.09100,0.10300,0.01800,-0.12000,0.18300,0.19800,-0.08800,-0.17800,-0.17300,-0.21700
0.08600,0.10000,0.01400,-0.09300,0.03600,0.05700,0.35500,0.68700,0.40000,0.20400,0.12200,0.00000
0.43500,0.82100,0.38600,-0.62800,0.02500,0.60300,0.03100,0.81200,1.47800,1.33600,1.03300,0.71100
0.43600,1.11800,0.68200,-0.77700,-0.12300,0.90000,-0.40800,0.03500,1.75100,1.80000,1.39200,0.97100
0.07100,0.30100,0.23000,-0.18600,-0.07900,0.26500,-0.28000,-0.49400,0.04000,0.27000,0.32100,0.20600
-0.06600,-0.25500,-0.18900,0.16100,0.06200,-0.22200,-0.00800,-0.02300,-0.49500,-0.38600,-0.22500,-0.20300
-0.03600,-0.20200,-0.16600,0.11900,0.06500,-0.18400,0.09700,0.17600,-0.10900,-0.14500,-0.13600,-0.17300
-0.00500,-0.13400,-0.12900,0.07000,0.06200,-0.13100,0.07500,0.03900,-0.22900,-0.22700,-0.15700,-0.17500
-0.03600,-0.11600,-0.08000,0.07600,0.02200,-0.09800,0.03800,0.00600,-0.14700,-0.16200,-0.10600,-0.14800
-0.08800,-0.13900,-0.05100,0.11400,-0.01800,-0.09400,0.03500,-0.06400,-0.19000,-0.19100,-0.12300,-0.15400
-0.06100,-0.12300,-0.06200,0.09200,0.00100,-0.09200,0.02900,-0.08000,-0.16500,-0.15400,-0.10800,-0.13500
-0.05600,-0.12800,-0.07300,0.09200,0.00900,-0.10000,0.00700,-0.09400,-0.16800,-0.15000,-0.10900,-0.13400
-0.05200,-0.12000,-0.06900,0.08600,0.00900,-0.09400,0.01700,-0.10200,-0.15900,-0.14400,-0.10700,-0.12500
-0.03200,-0.09900,-0.06700,0.06600,0.01800,-0.08300,0.04100,-0.09100,-0.11600,-0.12100,-0.09200,-0.11800
-0.03100,-0.09600,-0.06400,0.06400,0.01700,-0.08000,0.03100,-0.07800,-0.10300,-0.11600,-0.07500,-0.11400
-0.02700,-0.07600,-0.04900,0.05200,0.01100,-0.06200,0.03200,-0.06200,-0.06800,-0.08800,-0.05700,-0.10500
0.00700,-0.06700,-0.07400,0.03100,0.04000,-0.07000,0.02700,-0.04500,-0.06300,-0.08100,-0.05000,-0.10100
0.01500,-0.04800,-0.06300,0.01700,0.03900,-0.05500,0.02500,-0.01800,-0.02400,-0.05400,-0.03200,-0.08900
0.01300,-0.02700,-0.04100,0.00700,0.02700,-0.03400,0.02300,0.02000,0.01600,-0.02500,-0.01900,-0.08000
0.06300,-0.00200,-0.06500,-0.03000,0.06400,-0.03300,0.01400,0.03500,0.06200,0.00800,0.00200,-0.06800
0.05900,0.02100,-0.03800,-0.04000,0.04800,-0.00800,0.00800,0.07400,0.11800,0.04900,0.03800,-0.04400
0.04300,0.02000,-0.02300,-0.03200,0.03300,-0.00200,0.00100,0.12900,0.18700,0.10400,0.07500,-0.00800
0.10200,0.08300,-0.01900,-0.09200,0.06000,0.03200,-0.00900,0.18600,0.26700,0.17200,0.13100,0.04200
0.10100,0.13500,0.03500,-0.11800,0.03300,0.08500,-0.01000,0.25000,0.35200,0.24800,0.19500,0.07900
0.13200,0.17300,0.04100,-0.15300,0.04500,0.10700,-0.02000,0.27900,0.41200,0.30400,0.23800,0.11500
0.17600,0.22500,0.04900,-0.20100,0.06400,0.13600,-0.03300,0.31100,0.45900,0.35700,0.28400,0.15900
0.17000,0.24100,0.07100,-0.20600,0.05000,0.15600,-0.02100,0.31900,0.48000,0.39000,0.31700,0.19300
0.22500,0.27600,0.05100,-0.25100,0.08700,0.16300,-0.01400,0.29200,0.46200,0.38600,0.32500,0.20600
0.19000,0.24000,0.04900,-0.21500,0.07000,0.14400,-0.00300,0.23600,0.38800,0.34200,0.29600,0.17800
0.14800,0.16600,0.01900,-0.15700,0.06400,0.09200,0.00900,0.15700,0.25800,0.22800,0.22100,0.12400
0.09600,0.08200,-0.01400,-0.08900,0.05500,0.03400,0.02100,0.07500,0.13000,0.11600,0.14000,0.06000
0.03300,0.00900,-0.02400,-0.02100,0.02900,-0.00700,0.04400,0.01200,0.00800,0.02600,0.06200,0.00000
0.05000,-0.02900,-0.07900,-0.01000,0.06400,-0.05300,0.04700,-0.04100,-0.08300,-0.05500,-0.00700,-0.04900
0.02400,-0.08200,-0.10600,0.02900,0.06500,-0.09400,0.03400,-0.08800,-0.13800,-0.10100,-0.04500,-0.08200
0.00200,-0.10600,-0.10700,0.05200,0.05500,-0.10600,0.02700,-0.10300,-0.17900,-0.13000,-0.07700,-0.10100
-0.00700,-0.11400,-0.10700,0.06000,0.05000,-0.11000,0.02200,-0.11800,-0.19600,-0.15000,-0.06600,-0.11200
-0.03400,-0.12900,-0.09500,0.08200,0.03100,-0.11200,0.01900,-0.11800,-0.19500,-0.15900,-0.09400,-0.11400
-0.04600,-0.13900,-0.09300,0.09200,0.02400,-0.11600,0.01600,-0.11000,-0.19000,-0.15900,-0.05700,-0.11200
-0.01400,-0.12600,-0.11200,0.07000,0.04900,-0.11900,0.01000,-0.10800,-0.18000,-0.15000,0.06400,-0.10900
-0.01900,-0.14700,-0.12800,0.08400,0.05500,-0.13800,0.01200,-0.10200,-0.17000,-0.14000,0.01100,-0.11000
0.02600,-0.09700,-0.12200,0.03600,0.07400,-0.10900,0.02200,-0.10000,-0.16000,-0.13000,-0.00900,-0.10500
0.12100,-0.00600,-0.12700,-0.05700,0.12400,-0.06700,0.02000,-0.10700,-0.15400,-0.12100,0.00800,-0.10500
0.14900,0.02700,-0.12200,-0.08800,0.13500,-0.04700,0.02000,-0.10300,-0.15600,-0.11600,-0.00700,-0.10400
0.17600,0.04800,-0.12900,-0.11100,0.15200,-0.04000,0.01800,-0.10900,-0.15200,-0.11300,0.00600,-0.09800
0.12300,0.01500,-0.10800,-0.06900,0.11600,-0.04600,0.01400,-0.12000,-0.14900,-0.10700,-0.00500,-0.09400
0.07400,-0.00600,-0.08000,-0.03300,0.07700,-0.04200,0.01600,-0.10400,-0.15000,-0.10600,0.00400,-0.09000
